time,potential,current1_mA,coll_current,current1,current1_muA
2034.605,0.8371360000000001,-0.001107,,-1.1070000000000002e-06,-1.1070000000000002
2034.671,0.8338639999999999,-0.00118,,-1.18e-06,-1.1800000000000002
2034.736,0.830593,-0.001111,,-1.111e-06,-1.111
2034.8,0.827666,-0.001114,,-1.114e-06,-1.114
2034.866,0.8243950000000001,-0.001245,,-1.245e-06,-1.245
2034.931,0.8212959999999999,-0.001283,,-1.283e-06,-1.283
2034.996,0.818025,-0.001221,,-1.221e-06,-1.2209999999999999
2035.0610000000001,0.814754,-0.001231,,-1.2310000000000002e-06,-1.2309999999999999
2035.125,0.811999,-0.001328,,-1.328e-06,-1.328
2035.1879999999999,0.8089,-0.001417,,-1.4170000000000004e-06,-1.4169999999999998
2035.254,0.805457,-0.001397,,-1.397e-06,-1.3969999999999998
2035.3210000000001,0.802186,-0.001379,,-1.379e-06,-1.379
2035.389,0.799087,-0.001548,,-1.548e-06,-1.548
2035.455,0.795816,-0.001545,,-1.545e-06,-1.545
2035.525,0.7923720000000001,-0.001596,,-1.5959999999999998e-06,-1.5959999999999999
2035.5910000000001,0.789273,-0.00172,,-1.72e-06,-1.72
2035.6570000000002,0.7861739999999999,-0.0016760000000000002,,-1.676e-06,-1.6760000000000002
2035.7220000000002,0.782903,-0.0017239999999999998,,-1.7240000000000001e-06,-1.7239999999999998
2035.7910000000002,0.77946,-0.00192,,-1.92e-06,-1.92
2035.8570000000002,0.776361,-0.001893,,-1.8930000000000001e-06,-1.893
2035.921,0.7734340000000001,-0.001924,,-1.924e-06,-1.9240000000000002
2035.984,0.770335,-0.00203,,-2.03e-06,-2.03
2036.0479999999998,0.7672359999999999,-0.002178,,-2.178e-06,-2.1780000000000004
2036.1129999999998,0.763965,-0.0022440000000000003,,-2.2440000000000005e-06,-2.244
2036.1789999999999,0.7608659999999999,-0.002206,,-2.206e-06,-2.206
2036.2420000000002,0.757939,-0.002271,,-2.271e-06,-2.271
2036.305,0.75484,-0.002378,,-2.378e-06,-2.378
2036.37,0.7515689999999999,-0.002519,,-2.519e-06,-2.519
2036.434,0.7482979999999999,-0.002533,,-2.533e-06,-2.5329999999999995
2036.499,0.745027,-0.002519,,-2.519e-06,-2.519
2036.565,0.7421,-0.002629,,-2.629e-06,-2.6289999999999996
2036.631,0.738657,-0.002771,,-2.771e-06,-2.7710000000000004
2036.695,0.73573,-0.002788,,-2.788e-06,-2.7880000000000003
2036.76,0.732631,-0.002774,,-2.7739999999999996e-06,-2.7739999999999996
2036.825,0.729704,-0.002908,,-2.908e-06,-2.908
2036.888,0.7266050000000001,-0.003032,,-3.032e-06,-3.032
2036.9579999999999,0.7229899999999999,-0.003046,,-3.046e-06,-3.0460000000000003
2037.0320000000002,0.719546,-0.003253,,-3.253000000000001e-06,-3.253
2037.0970000000002,0.7164470000000001,-0.003291,,-3.290999999999999e-06,-3.2909999999999995
2037.161,0.7135199999999999,-0.003363,,-3.363e-06,-3.363
2037.226,0.710421,-0.003556,,-3.5560000000000008e-06,-3.556
2037.29,0.707322,-0.003766,,-3.766e-06,-3.766
2037.3529999999998,0.7042229999999999,-0.003924,,-3.924e-06,-3.924
2037.4160000000002,0.7012970000000001,-0.004062,,-4.0619999999999985e-06,-4.0619999999999985
2037.485,0.6983699999999999,-0.004265,,-4.265e-06,-4.265
2037.5510000000002,0.694926,-0.0045780000000000005,,-4.578000000000002e-06,-4.578
2037.616,0.6918270000000001,-0.00474,,-4.74e-06,-4.74
2037.68,0.6890729999999999,-0.004823,,-4.823e-06,-4.823
2037.745,0.685974,-0.004868,,-4.868e-06,-4.868
2037.8110000000001,0.682531,-0.004809000000000001,,-4.809000000000002e-06,-4.809000000000001
2037.875,0.6794319999999999,-0.004534000000000001,,-4.534000000000002e-06,-4.534000000000002
2037.941,0.67616,-0.004182,,-4.182e-06,-4.1819999999999995
2038.01,0.672717,-0.004034,,-4.0340000000000015e-06,-4.034000000000002
2038.0770000000002,0.6691020000000001,-0.003835,,-3.8350000000000006e-06,-3.835
2038.148,0.66583,-0.003866,,-3.866e-06,-3.866
2038.2160000000001,0.662043,-0.003831,,-3.831e-06,-3.831
2038.281,0.659116,-0.003783,,-3.783e-06,-3.783
2038.346,0.656017,-0.003866,,-3.866e-06,-3.866
2038.4089999999999,0.652746,-0.0039310000000000005,,-3.931e-06,-3.931000000000001
2038.4779999999998,0.64913,-0.003869,,-3.869e-06,-3.869
2038.546,0.646203,-0.0039380000000000005,,-3.938e-06,-3.9380000000000006
2038.611,0.642588,-0.004027,,-4.0270000000000014e-06,-4.027
2038.6760000000002,0.639317,-0.003996,,-3.996e-06,-3.996
2038.741,0.63639,-0.003965,,-3.965e-06,-3.965
2038.806,0.6332909999999999,-0.004051,,-4.051e-06,-4.051
2038.869,0.630364,-0.004138,,-4.138e-06,-4.138
2038.935,0.626749,-0.0041340000000000005,,-4.1340000000000006e-06,-4.1339999999999995
2039.0,0.62365,-0.004093,,-4.0930000000000005e-06,-4.093
2039.067,0.6207229999999999,-0.004203,,-4.203e-06,-4.203
2039.131,0.61728,-0.004268,,-4.2680000000000005e-06,-4.268
2039.1960000000001,0.6138359999999999,-0.004237,,-4.2369999999999986e-06,-4.236999999999999
2039.261,0.611082,-0.0042060000000000005,,-4.206000000000002e-06,-4.206
2039.33,0.607638,-0.004351,,-4.351e-06,-4.351
2039.394,0.604367,-0.004344,,-4.3439999999999986e-06,-4.3439999999999985
2039.461,0.601268,-0.004282,,-4.282e-06,-4.282
2039.527,0.598169,-0.004372,,-4.372e-06,-4.372
2039.592,0.594726,-0.004416,,-4.416000000000001e-06,-4.416
2039.656,0.5914550000000001,-0.004358,,-4.3580000000000005e-06,-4.3580000000000005
2039.7220000000002,0.588356,-0.004313,,-4.313e-06,-4.313
2039.793,0.5847399999999999,-0.00443,,-4.43e-06,-4.43
2039.855,0.581641,-0.004392,,-4.3920000000000005e-06,-4.3919999999999995
2039.922,0.5787140000000001,-0.00433,,-4.33e-06,-4.33
2039.989,0.575271,-0.004441,,-4.441e-06,-4.441
2040.059,0.571656,-0.004351,,-4.351e-06,-4.351
2040.1270000000002,0.568557,-0.00442,,-4.42e-06,-4.42
2040.195,0.564769,-0.00441,,-4.41e-06,-4.41
2040.261,0.56167,-0.004340999999999999,,-4.3410000000000005e-06,-4.340999999999998
2040.326,0.558743,-0.00441,,-4.41e-06,-4.41
2040.391,0.5554720000000001,-0.004461,,-4.4609999999999985e-06,-4.4609999999999985
2040.461,0.552029,-0.004354,,-4.354e-06,-4.354
2040.5320000000002,0.548413,-0.004475,,-4.475e-06,-4.475
2040.601,0.54497,-0.004372,,-4.372e-06,-4.372
2040.665,0.542043,-0.004427,,-4.427e-06,-4.4270000000000005
2040.73,0.5386,-0.0045130000000000005,,-4.5130000000000015e-06,-4.513000000000001
2040.793,0.5351560000000001,-0.0045060000000000005,,-4.5060000000000006e-06,-4.506
2040.856,0.53223,-0.004482,,-4.482e-06,-4.482
2040.9189999999999,0.528958,-0.004461,,-4.4609999999999985e-06,-4.4609999999999985
2040.985,0.5260319999999999,-0.004523,,-4.523e-06,-4.523
2041.049,0.522933,-0.004616,,-4.616e-06,-4.6160000000000005
2041.114,0.519317,-0.00464,,-4.64e-06,-4.64
2041.1789999999999,0.516046,-0.004592000000000001,,-4.592e-06,-4.5920000000000005
2041.247,0.513119,-0.0047090000000000005,,-4.709e-06,-4.7090000000000005
2041.3129999999999,0.509332,-0.0047810000000000005,,-4.7810000000000005e-06,-4.7810000000000015
2041.378,0.5060600000000001,-0.004744,,-4.744e-06,-4.744
2041.4489999999998,0.502961,-0.004895,,-4.895e-06,-4.8950000000000005
2041.5179999999998,0.499346,-0.004871,,-4.8710000000000005e-06,-4.871
2041.5829999999999,0.496419,-0.004922999999999999,,-4.9229999999999984e-06,-4.922999999999999
2041.6529999999998,0.492804,-0.005074,,-5.074e-06,-5.074000000000002
2041.724,0.48936,-0.005067,,-5.067e-06,-5.067
2041.789,0.4860890000000001,-0.005191,,-5.190999999999998e-06,-5.191
2041.859,0.4823020000000001,-0.005143,,-5.143e-06,-5.143
2041.9270000000001,0.479203,-0.005243,,-5.2430000000000005e-06,-5.242999999999999
2042.006,0.475243,-0.005246,,-5.2459999999999986e-06,-5.246
2042.0770000000002,0.471111,-0.005229,,-5.228999999999999e-06,-5.229
2042.1429999999998,0.468184,-0.005184,,-5.184e-06,-5.184
2042.2089999999998,0.464913,-0.005226,,-5.2260000000000004e-06,-5.226
2042.277,0.461125,-0.005081,,-5.081e-06,-5.081
2042.3410000000001,0.458198,-0.004943,,-4.943e-06,-4.9430000000000005
2042.4029999999998,0.455099,-0.00484,,-4.8399999999999986e-06,-4.84
2042.469,0.4516560000000001,-0.004788000000000001,,-4.7880000000000006e-06,-4.788
2042.535,0.44804,-0.004599,,-4.599e-06,-4.599
2042.5970000000002,0.444769,-0.004389,,-4.389e-06,-4.3889999999999985
2042.664,0.441498,-0.004213000000000001,,-4.213000000000002e-06,-4.213000000000001
2042.73,0.438055,-0.0041270000000000005,,-4.1270000000000005e-06,-4.127000000000002
2042.8010000000002,0.434439,-0.003831,,-3.831e-06,-3.831
2042.898,0.429274,-0.003614,,-3.6139999999999996e-06,-3.614
2042.975,0.425315,-0.003504,,-3.504e-06,-3.504
2043.057,0.421355,-0.0033350000000000003,,-3.3350000000000007e-06,-3.3350000000000004
2043.129,0.417911,-0.003294,,-3.294e-06,-3.294
2043.1970000000001,0.414296,-0.003098,,-3.098e-06,-3.0980000000000003
2043.26,0.411025,-0.002987,,-2.987e-06,-2.987
2043.3229999999999,0.407926,-0.0029460000000000003,,-2.9460000000000007e-06,-2.946
2043.386,0.404827,-0.0029460000000000003,,-2.9460000000000007e-06,-2.946
2043.4479999999999,0.4019,-0.002919,,-2.9190000000000008e-06,-2.9189999999999996
2043.516,0.398457,-0.002774,,-2.7739999999999996e-06,-2.7739999999999996
2043.582,0.395013,-0.002712,,-2.712e-06,-2.7119999999999997
2043.6470000000002,0.392087,-0.002771,,-2.771e-06,-2.7710000000000004
2043.7120000000002,0.388643,-0.002733,,-2.733e-06,-2.733
2043.7779999999998,0.385716,-0.002602,,-2.602e-06,-2.6020000000000003
2043.8429999999998,0.382273,-0.002609,,-2.609e-06,-2.609
2043.9070000000002,0.379346,-0.002664,,-2.664e-06,-2.6639999999999997
2043.971,0.375903,-0.002657,,-2.6569999999999997e-06,-2.657
2044.055,0.371943,-0.002581,,-2.5810000000000004e-06,-2.5810000000000004
2044.14,0.367639,-0.002499,,-2.499e-06,-2.499
2044.217,0.364196,-0.002512,,-2.512e-06,-2.512
2044.3010000000002,0.359892,-0.002502,,-2.502e-06,-2.502
2044.3729999999998,0.35627600000000004,-0.002592,,-2.592e-06,-2.592
2044.441,0.353005,-0.002509,,-2.509e-06,-2.509
2044.51,0.349906,-0.002633,,-2.633e-06,-2.633
2044.5739999999998,0.346635,-0.002578,,-2.578e-06,-2.5780000000000003
2044.6370000000002,0.343708,-0.002519,,-2.519e-06,-2.519
2044.704,0.340265,-0.002547,,-2.547e-06,-2.547
2044.776,0.336821,-0.0025050000000000003,,-2.505e-06,-2.5050000000000003
2044.848,0.333378,-0.002592,,-2.592e-06,-2.592
2044.9189999999999,0.329935,-0.002447,,-2.447e-06,-2.447
2044.9879999999998,0.326491,-0.002574,,-2.574e-06,-2.574
2045.0539999999999,0.323392,-0.002499,,-2.499e-06,-2.499
2045.12,0.319777,-0.00243,,-2.43e-06,-2.43
2045.2020000000002,0.315817,-0.002468,,-2.4680000000000003e-06,-2.468
2045.279,0.312202,-0.002419,,-2.419e-06,-2.419
2045.361,0.30806999999999995,-0.002437,,-2.4369999999999997e-06,-2.437
2045.4370000000001,0.304626,-0.002423,,-2.4230000000000003e-06,-2.423
2045.511,0.300839,-0.002523,,-2.523e-06,-2.523
2045.578,0.297395,-0.002412,,-2.412e-06,-2.412
2045.642,0.294296,-0.00245,,-2.45e-06,-2.45
2045.705,0.291197,-0.002502,,-2.502e-06,-2.502
2045.774,0.287926,-0.00243,,-2.43e-06,-2.43
2045.839,0.284483,-0.002388,,-2.3880000000000003e-06,-2.388
2045.904,0.281384,-0.002461,,-2.461e-06,-2.4610000000000003
2045.971,0.278285,-0.002457,,-2.457e-06,-2.457
2046.043,0.274497,-0.002406,,-2.406e-06,-2.406
2046.11,0.27139800000000003,-0.002443,,-2.443e-06,-2.443
2046.1760000000002,0.268127,-0.00233,,-2.33e-06,-2.33
2046.2379999999998,0.2652,-0.002306,,-2.306e-06,-2.306
2046.3039999999999,0.261757,-0.002378,,-2.378e-06,-2.378
2046.368,0.258658,-0.002419,,-2.419e-06,-2.419
2046.435,0.25555900000000004,-0.002302,,-2.302e-06,-2.302
2046.5020000000002,0.252116,-0.0023190000000000003,,-2.319e-06,-2.3190000000000004
2046.568,0.248672,-0.002406,,-2.406e-06,-2.406
2046.6329999999998,0.245918,-0.002333,,-2.333e-06,-2.333
2046.7020000000002,0.24213,-0.002302,,-2.302e-06,-2.302
2046.771,0.238859,-0.002375,,-2.375e-06,-2.375
2046.8410000000001,0.235588,-0.002278,,-2.278e-06,-2.278
2046.9089999999999,0.232317,-0.002392,,-2.3919999999999997e-06,-2.392
2046.983,0.228357,-0.0023190000000000003,,-2.319e-06,-2.3190000000000004
2047.0629999999999,0.224397,-0.002326,,-2.326e-06,-2.326
2047.1329999999998,0.221298,-0.002333,,-2.333e-06,-2.333
2047.203,0.217683,-0.002316,,-2.316e-06,-2.316
2047.276,0.214239,-0.002282,,-2.2820000000000003e-06,-2.282
2047.351,0.210279,-0.002388,,-2.3880000000000003e-06,-2.388
2047.4170000000001,0.20718000000000006,-0.002289,,-2.2890000000000004e-06,-2.289
2047.4820000000002,0.203909,-0.002323,,-2.323e-06,-2.323
2047.545,0.20081,-0.002395,,-2.395e-06,-2.395
2047.615,0.197539,-0.002385,,-2.385e-06,-2.385
2047.6879999999999,0.193751,-0.002468,,-2.4680000000000003e-06,-2.468
2047.756,0.190825,-0.002381,,-2.381e-06,-2.381
2047.825,0.187381,-0.002468,,-2.4680000000000003e-06,-2.468
2047.892,0.183938,-0.002516,,-2.516e-06,-2.516
2047.957,0.181011,-0.002447,,-2.447e-06,-2.447
2048.024,0.177568,-0.002526,,-2.526e-06,-2.526
2048.0860000000002,0.174469,-0.002605,,-2.605e-06,-2.605
2048.156,0.171198,-0.0025670000000000003,,-2.5669999999999997e-06,-2.5669999999999997
2048.221,0.168099,-0.0025670000000000003,,-2.5669999999999997e-06,-2.5669999999999997
2048.291,0.164483,-0.002729,,-2.7289999999999996e-06,-2.7289999999999996
2048.357,0.161384,-0.00265,,-2.65e-06,-2.65
2048.422,0.15828499999999998,-0.002688,,-2.688e-06,-2.688
2048.486,0.155014,-0.0028120000000000003,,-2.8120000000000004e-06,-2.8120000000000003
2048.549,0.15191500000000002,-0.002877,,-2.877e-06,-2.877
2048.614,0.148816,-0.002874,,-2.874e-06,-2.874
2048.68,0.145545,-0.002826,,-2.826e-06,-2.826
2048.7470000000003,0.14244600000000002,-0.002984,,-2.9839999999999997e-06,-2.984
2048.817,0.13883099999999998,-0.002963,,-2.9630000000000003e-06,-2.963
2048.879,0.135732,-0.002987,,-2.987e-06,-2.987
2048.946,0.132633,-0.003125,,-3.125e-06,-3.125
2049.0170000000003,0.129189,-0.003136,,-3.136e-06,-3.136
2049.092,0.125574,-0.003304,,-3.3039999999999996e-06,-3.3040000000000003
2049.1639999999998,0.122131,-0.003297,,-3.297e-06,-3.2969999999999997
2049.235,0.118515,-0.003411,,-3.411e-06,-3.411
2049.304,0.115416,-0.0034560000000000003,,-3.456000000000001e-06,-3.4560000000000004
2049.376,0.111456,-0.003569,,-3.569e-06,-3.5689999999999995
2049.4410000000003,0.108529,-0.003618,,-3.618e-06,-3.618
2049.507,0.10543,-0.003814,,-3.814e-06,-3.8139999999999996
2049.574,0.101987,-0.003945000000000001,,-3.945e-06,-3.9450000000000007
2049.639,0.098716,-0.003986,,-3.9860000000000005e-06,-3.986
2049.7039999999997,0.095961,-0.004144,,-4.1440000000000005e-06,-4.144
2049.766,0.093035,-0.004344,,-4.3439999999999986e-06,-4.3439999999999985
2049.833,0.08959099999999999,-0.004561,,-4.561e-06,-4.561
2049.9,0.08632000000000001,-0.004664,,-4.664e-06,-4.664
2049.965,0.083393,-0.004936,,-4.9360000000000015e-06,-4.936
2050.031,0.080122,-0.00527,,-5.27e-06,-5.2700000000000005
2050.096,0.07702300000000001,-0.005515,,-5.515e-06,-5.515
2050.161,0.07409600000000001,-0.005804,,-5.804e-06,-5.803999999999999
2050.226,0.07116900000000001,-0.006268999999999999,,-6.269e-06,-6.268999999999999
2050.292,0.067898,-0.006792,,-6.792e-06,-6.792000000000002
2050.357,0.064799,-0.007264,,-7.2639999999999986e-06,-7.2639999999999985
2050.428,0.061873,-0.008022,,-8.022e-06,-8.022
2050.493,0.058601,-0.008814,,-8.813999999999999e-06,-8.814
2050.558,0.055675,-0.00965,,-9.65e-06,-9.65
2050.629,0.055158000000000006,-0.0068200000000000005,,-6.820000000000002e-06,-6.82
2050.692,0.056363,-0.0034560000000000003,,-3.456000000000001e-06,-3.4560000000000004
