time,potential,current1_mA,coll_current,current1,current1_muA
2524.504,0.000409,-0.266915,,-0.000266915,-266.915
2524.569,-0.001657,-0.31722,,-0.00031722,-317.22
2524.634,-0.002862,-0.346986,,-0.00034698600000000003,-346.986
2524.699,-0.004067,-0.329185,,-0.000329185,-329.185
2524.764,-0.004411,-0.307717,,-0.000307717,-307.7170000000001
2524.8289999999997,-0.004239,-0.284062,,-0.000284062,-284.0619999999999
2524.894,-0.004067,-0.258841,,-0.000258841,-258.841
2524.958,-0.00355,-0.231554,,-0.00023155400000000003,-231.554
2525.024,-0.002862,-0.203044,,-0.00020304400000000002,-203.044
2525.091,-0.002001,-0.174413,,-0.00017441300000000005,-174.41299999999998
2525.156,-0.000796,-0.14747000000000002,,-0.00014747000000000002,-147.47000000000003
2525.222,0.000582,-0.122127,,-0.000122127,-122.12700000000001
2525.297,0.002475,-0.096199,,-9.619899999999999e-05,-96.199
2525.361,0.003853,-0.076487,,-7.6487e-05,-76.487
2525.427,0.005919,-0.058771,,-5.8771e-05,-58.771
2525.492,0.007984999999999999,-0.043913,,-4.3913000000000005e-05,-43.913
2525.5570000000002,0.010051,-0.031362,,-3.1361999999999996e-05,-31.362
2525.62,0.012289,-0.021067,,-2.1066999999999997e-05,-21.066999999999997
2525.687,0.014871,-0.011976,,-1.1975999999999999e-05,-11.975999999999999
2525.754,0.017626,-0.004762,,-4.762e-06,-4.762
2525.822,0.020381,0.000919,,9.19e-07,0.919
2525.889,0.02348,0.005258,,5.258e-06,5.257999999999999
2525.9570000000003,0.026751,0.008116,,8.116e-06,8.116
2526.024,0.030366000000000008,0.010164,,1.0164e-05,10.164
2526.087,0.03381,0.011214,,1.1214000000000001e-05,11.214
2526.15,0.037425,0.011593,,1.1592999999999999e-05,11.593000000000002
2526.23,0.041901,0.011456,,1.1455999999999998e-05,11.456
2526.295,0.046033,0.010836,,1.0836e-05,10.835999999999999
2526.363,0.050165,0.010164,,1.0164e-05,10.164
2526.431,0.054469,0.009355,,9.355e-06,9.355
2526.5,0.058774,0.008443,,8.443e-06,8.443000000000001
2526.5679999999998,0.063078,0.007770999999999998,,7.770999999999999e-06,7.770999999999999
2526.639,0.067554,0.006876,,6.876e-06,6.876
2526.7070000000003,0.071686,0.006359,,6.359e-06,6.359
2526.776,0.075818,0.005636,,5.636e-06,5.635999999999999
2526.843,0.07995,0.005258,,5.258e-06,5.257999999999999
2526.911,0.08391,0.004793,,4.7930000000000005e-06,4.793
2526.978,0.087697,0.004345,,4.345e-06,4.345
2527.045,0.091657,0.004156,,4.1560000000000005e-06,4.156000000000001
2527.112,0.095445,0.003811,,3.811e-06,3.8110000000000004
2527.18,0.099232,0.003501,,3.501e-06,3.5010000000000003
2527.248,0.10302,0.0033979999999999995,,3.397999999999999e-06,3.398
2527.321,0.107152,0.003105,,3.105e-06,3.105
2527.388,0.110595,0.003019,,3.019e-06,3.0189999999999997
2527.455,0.11403900000000003,0.002761,,2.7610000000000003e-06,2.761
2527.525,0.117999,0.002813,,2.813e-06,2.813
2527.592,0.121442,0.002623,,2.623e-06,2.623
2527.66,0.125057,0.002537,,2.537e-06,2.5370000000000004
2527.728,0.128501,0.00252,,2.52e-06,2.52
2527.7929999999997,0.131944,0.002262,,2.2619999999999997e-06,2.262
2527.861,0.135559,0.002193,,2.193e-06,2.193
2527.928,0.139003,0.002072,,2.072e-06,2.072
2527.995,0.14244600000000002,0.001814,,1.814e-06,1.814
2528.063,0.146234,0.001831,,1.831e-06,1.831
2528.131,0.149333,0.0016079999999999998,,1.608e-06,1.608
2528.198,0.152948,0.0014869999999999998,,1.487e-06,1.487
2528.263,0.156564,0.0014869999999999998,,1.487e-06,1.487
2528.328,0.159663,0.001367,,1.3669999999999998e-06,1.367
2528.397,0.163278,0.001194,,1.1940000000000001e-06,1.194
2528.4610000000002,0.166721,0.0012289999999999998,,1.2289999999999998e-06,1.229
2528.527,0.16982,0.00116,,1.16e-06,1.16
2528.5879999999997,0.17291900000000002,0.001039,,1.0390000000000001e-06,1.0390000000000001
2528.659,0.176707,0.0009880000000000002,,9.88e-07,0.9880000000000002
2528.723,0.179806,0.000971,,9.709999999999999e-07,0.971
2528.786,0.182905,0.000902,,9.02e-07,0.902
2528.857,0.186348,0.00073,,7.3e-07,0.73
2528.9210000000003,0.189964,0.000781,,7.809999999999999e-07,0.7809999999999999
2528.984,0.193063,0.0007639999999999999,,7.639999999999998e-07,0.7639999999999999
2529.05,0.19599,0.000644,,6.440000000000001e-07,0.644
2529.112,0.199261,0.000557,,5.57e-07,0.5569999999999999
2529.177,0.202704,0.000557,,5.57e-07,0.5569999999999999
2529.242,0.205975,0.000609,,6.089999999999999e-07,0.609
2529.306,0.209074,0.000557,,5.57e-07,0.5569999999999999
2529.367,0.212001,0.000523,,5.23e-07,0.523
2529.429,0.214928,0.000454,,4.54e-07,0.454
2529.493,0.218371,0.000402,,4.02e-07,0.402
2529.558,0.221987,0.000454,,4.54e-07,0.454
2529.6279999999997,0.225086,0.00042,,4.2e-07,0.42
2529.692,0.228185,0.000351,,3.5099999999999995e-07,0.35100000000000003
2529.757,0.231972,0.000368,,3.6799999999999996e-07,0.368
2529.82,0.235071,0.000402,,4.02e-07,0.402
2529.881,0.23817,0.000437,,4.37e-07,0.43700000000000006
2529.946,0.240925,0.000385,,3.85e-07,0.385
2530.01,0.244196,0.000299,,2.9899999999999996e-07,0.299
2530.074,0.247467,0.000265,,2.65e-07,0.265
2530.1420000000003,0.250911,0.000334,,3.34e-07,0.334
2530.205,0.253837,0.000299,,2.9899999999999996e-07,0.299
2530.269,0.256936,0.000213,,2.1300000000000001e-07,0.213
2530.3320000000003,0.260208,0.000179,,1.7899999999999997e-07,0.17900000000000002
2530.394,0.263479,0.000196,,1.96e-07,0.196
2530.458,0.26675,0.000213,,2.1300000000000001e-07,0.213
2530.522,0.269849,0.000213,,2.1300000000000001e-07,0.213
2530.585,0.272776,0.000196,,1.96e-07,0.196
2530.649,0.275875,0.00011,,1.1e-07,0.11
2530.714,0.27949,0.00011,,1.1e-07,0.11
2530.777,0.28276100000000004,0.000144,,1.44e-07,0.14400000000000002
2530.841,0.28586,0.000179,,1.7899999999999997e-07,0.17900000000000002
2530.902,0.288615,0.000179,,1.7899999999999997e-07,0.17900000000000002
2530.965,0.29137,0.000144,,1.44e-07,0.14400000000000002
2531.03,0.294813,7.5e-05,,7.5e-08,0.075
2531.094,0.298428,9.3e-05,,9.3e-08,0.093
2531.16,0.301872,0.000179,,1.7899999999999997e-07,0.17900000000000002
2531.226,0.304626,0.000144,,1.44e-07,0.14400000000000002
2531.292,0.308242,9.3e-05,,9.3e-08,0.093
2531.356,0.311513,0.000144,,1.44e-07,0.14400000000000002
2531.4179999999997,0.314612,0.000179,,1.7899999999999997e-07,0.17900000000000002
2531.491,0.317711,0.00011,,1.1e-07,0.11
2531.556,0.321326,0.000179,,1.7899999999999997e-07,0.17900000000000002
2531.623,0.324425,0.00023,,2.3e-07,0.23
2531.686,0.32718,0.000196,,1.96e-07,0.196
2531.749,0.330451,0.000161,,1.6100000000000003e-07,0.161
2531.814,0.333894,0.000161,,1.6100000000000003e-07,0.161
2531.8779999999997,0.337338,0.000265,,2.65e-07,0.265
2531.9429999999998,0.340265,0.000299,,2.9899999999999996e-07,0.299
2532.009,0.343191,0.00023,,2.3e-07,0.23
2532.075,0.346979,0.000299,,2.9899999999999996e-07,0.299
2532.14,0.350078,0.000402,,4.02e-07,0.402
2532.201,0.353005,0.000402,,4.02e-07,0.402
2532.264,0.35576,0.00042,,4.2e-07,0.42
2532.3289999999997,0.359031,0.000368,,3.6799999999999996e-07,0.368
2532.393,0.362302,0.000385,,3.85e-07,0.385
2532.458,0.365745,0.0005059999999999999,,5.059999999999999e-07,0.5059999999999999
2532.52,0.368672,0.00054,,5.4e-07,0.54
2532.592,0.372115,0.000454,,4.54e-07,0.454
2532.66,0.375731,0.000609,,6.089999999999999e-07,0.609
2532.726,0.378658,0.000609,,6.089999999999999e-07,0.609
2532.795,0.382273,0.000592,,5.92e-07,0.5920000000000001
2532.8579999999997,0.385372,0.000661,,6.609999999999999e-07,0.6609999999999999
2532.922,0.388471,0.0007469999999999999,,7.469999999999998e-07,0.747
2532.986,0.391398,0.00073,,7.3e-07,0.73
2533.051,0.394497,0.000712,,7.119999999999998e-07,0.7120000000000001
2533.117,0.398112,0.000816,,8.159999999999999e-07,0.816
2533.183,0.401384,0.000936,,9.359999999999999e-07,0.936
2533.248,0.40431,0.000902,,9.02e-07,0.902
2533.312,0.407581,0.000902,,9.02e-07,0.902
2533.3779999999997,0.410853,0.001039,,1.0390000000000001e-06,1.0390000000000001
2533.4429999999998,0.413952,0.001177,,1.1770000000000001e-06,1.1769999999999998
2533.51,0.417051,0.001126,,1.1259999999999999e-06,1.126
2533.572,0.42015,0.001194,,1.1940000000000001e-06,1.194
2533.64,0.4235930000000001,0.001401,,1.4009999999999998e-06,1.4009999999999998
2533.7039999999997,0.426692,0.001539,,1.539e-06,1.5390000000000001
2533.769,0.429619,0.001556,,1.556e-06,1.556
2533.831,0.432546,0.0016420000000000002,,1.6420000000000003e-06,1.642
2533.896,0.435989,0.001797,,1.797e-06,1.797
2533.9610000000002,0.439088,0.002021,,2.021e-06,2.0210000000000004
2534.0229999999997,0.442187,0.002193,,2.193e-06,2.193
2534.0860000000002,0.445114,0.002314,,2.314e-06,2.314
2534.152,0.44804,0.002348,,2.3480000000000002e-06,2.3480000000000003
2534.216,0.451139,0.00252,,2.52e-06,2.52
2534.281,0.454238,0.002796,,2.7960000000000004e-06,2.7960000000000003
2534.345,0.45751,0.002916,,2.916e-06,2.9160000000000004
2534.417,0.460953,0.002985,,2.985e-06,2.9850000000000003
2534.491,0.464396,0.003071,,3.0710000000000003e-06,3.071
2534.555,0.467495,0.003157,,3.157e-06,3.157
2534.619,0.470594,0.003312,,3.312e-06,3.312
2534.6820000000002,0.473693,0.00345,,3.45e-06,3.45
2534.744,0.47662,0.00345,,3.45e-06,3.45
2534.808,0.479891,0.0033979999999999995,,3.397999999999999e-06,3.398
2534.873,0.48299,0.003329,,3.329e-06,3.329
2534.935,0.485917,0.003329,,3.329e-06,3.329
2534.995,0.489188,0.003329,,3.329e-06,3.329
2535.062,0.492631,0.003433,,3.433e-06,3.4330000000000003
2535.127,0.49573,0.003329,,3.329e-06,3.329
2535.1910000000003,0.498829,0.003192,,3.1919999999999997e-06,3.1919999999999997
2535.254,0.5019279999999999,0.003157,,3.157e-06,3.157
2535.317,0.505372,0.003192,,3.1919999999999997e-06,3.1919999999999997
2535.381,0.508299,0.003226,,3.226e-06,3.2259999999999995
2535.446,0.51157,0.003157,,3.157e-06,3.157
2535.51,0.514841,0.003019,,3.019e-06,3.0189999999999997
2535.572,0.51794,0.002968,,2.968e-06,2.968
2535.634,0.521211,0.002951,,2.951e-06,2.951
2535.699,0.52431,0.003019,,3.019e-06,3.0189999999999997
2535.764,0.5275810000000001,0.003019,,3.019e-06,3.0189999999999997
2535.8289999999997,0.53068,0.002882,,2.8819999999999997e-06,2.8819999999999997
2535.896,0.534296,0.002899,,2.899e-06,2.899
2535.9610000000002,0.537395,0.002985,,2.985e-06,2.9850000000000003
2536.025,0.540666,0.002968,,2.968e-06,2.968
2536.092,0.543937,0.002847,,2.847e-06,2.8469999999999995
2536.159,0.54738,0.002968,,2.968e-06,2.968
2536.225,0.550651,0.002985,,2.985e-06,2.9850000000000003
2536.29,0.5539229999999999,0.002864,,2.8639999999999996e-06,2.8640000000000003
2536.355,0.557022,0.002916,,2.916e-06,2.9160000000000004
2536.419,0.560293,0.002985,,2.985e-06,2.9850000000000003
2536.481,0.5635640000000001,0.003037,,3.0370000000000007e-06,3.0370000000000004
2536.5429999999997,0.566491,0.003054,,3.054e-06,3.054
2536.6079999999997,0.569762,0.002968,,2.968e-06,2.968
2536.675,0.573033,0.002968,,2.968e-06,2.968
2536.741,0.576304,0.003105,,3.105e-06,3.105
2536.808,0.579575,0.002968,,2.968e-06,2.968
2536.8720000000003,0.582846,0.002968,,2.968e-06,2.968
2536.936,0.585773,0.003019,,3.019e-06,3.0189999999999997
2537.0,0.589217,0.003123,,3.123e-06,3.123
2537.062,0.592316,0.003123,,3.123e-06,3.123
2537.126,0.595587,0.003037,,3.0370000000000007e-06,3.0370000000000004
2537.1910000000003,0.5986859999999999,0.002968,,2.968e-06,2.968
2537.257,0.601957,0.003054,,3.054e-06,3.054
2537.3179999999998,0.605228,0.003071,,3.0710000000000003e-06,3.071
2537.381,0.6079829999999999,0.003105,,3.105e-06,3.105
2537.445,0.611254,0.003037,,3.0370000000000007e-06,3.0370000000000004
2537.509,0.614525,0.002933,,2.933e-06,2.9330000000000003
2537.574,0.617796,0.002916,,2.916e-06,2.9160000000000004
2537.636,0.6207229999999999,0.002933,,2.933e-06,2.9330000000000003
2537.7,0.624166,0.003002,,3.002e-06,3.002
2537.764,0.627265,0.002933,,2.933e-06,2.9330000000000003
2537.828,0.630364,0.002813,,2.813e-06,2.813
2537.893,0.6336350000000001,0.002778,,2.778e-06,2.778
2537.9570000000003,0.636907,0.00283,,2.83e-06,2.83
2538.021,0.64035,0.002864,,2.8639999999999996e-06,2.8640000000000003
2538.085,0.6432770000000001,0.002778,,2.778e-06,2.778
2538.1479999999997,0.6463760000000001,0.0026920000000000004,,2.692e-06,2.6919999999999997
2538.2129999999997,0.649647,0.002641,,2.641e-06,2.641
2538.275,0.652918,0.0026920000000000004,,2.692e-06,2.6919999999999997
2538.339,0.656017,0.002727,,2.727e-06,2.727
2538.405,0.659288,0.002675,,2.675e-06,2.675
2538.474,0.6627310000000001,0.002589,,2.5889999999999997e-06,2.589
2538.538,0.666003,0.002675,,2.675e-06,2.675
2538.601,0.6692739999999999,0.002675,,2.675e-06,2.675
2538.665,0.672201,0.002623,,2.623e-06,2.623
2538.73,0.675127,0.002641,,2.641e-06,2.641
2538.795,0.678571,0.002899,,2.899e-06,2.899
2538.859,0.6818420000000001,0.003226,,3.226e-06,3.2259999999999995
2538.923,0.684769,0.003501,,3.501e-06,3.5010000000000003
2538.988,0.68804,0.003622,,3.622e-06,3.622
2539.049,0.6906220000000001,0.003725,,3.725e-06,3.725
2539.115,0.694066,0.003777,,3.777e-06,3.7770000000000006
2539.179,0.697337,0.003708,,3.708e-06,3.708
2539.244,0.700608,0.003467,,3.467e-06,3.467
2539.3070000000002,0.703707,0.003174,,3.174e-06,3.174
2539.3720000000003,0.706978,0.002968,,2.968e-06,2.968
2539.437,0.710421,0.002864,,2.8639999999999996e-06,2.8640000000000003
2539.501,0.7135199999999999,0.002744,,2.744e-06,2.744
2539.562,0.716792,0.002606,,2.606e-06,2.6060000000000003
2539.627,0.720063,0.002382,,2.382e-06,2.3819999999999997
2539.6929999999998,0.723334,0.0022960000000000003,,2.296e-06,2.2960000000000003
2539.759,0.726949,0.002331,,2.331e-06,2.3309999999999995
2539.824,0.7300479999999999,0.00221,,2.21e-06,2.21
2539.889,0.7333189999999999,0.002072,,2.072e-06,2.072
2539.955,0.7367630000000001,0.002124,,2.124e-06,2.124
2540.018,0.740034,0.002124,,2.124e-06,2.124
2540.08,0.742789,0.00209,,2.09e-06,2.09
2540.145,0.7460600000000001,0.0019690000000000003,,1.969e-06,1.9690000000000003
2540.212,0.7495029999999999,0.001952,,1.9519999999999997e-06,1.952
2540.277,0.752946,0.002055,,2.055e-06,2.055
2540.341,0.7558729999999999,0.002038,,2.0380000000000002e-06,2.0380000000000003
2540.406,0.758972,0.001952,,1.9519999999999997e-06,1.952
2540.472,0.762588,0.001952,,1.9519999999999997e-06,1.952
2540.534,0.765687,0.002004,,2.004e-06,2.004
2540.597,0.768786,0.00209,,2.09e-06,2.09
2540.661,0.771885,0.002072,,2.072e-06,2.072
2540.725,0.7748109999999999,0.002021,,2.021e-06,2.0210000000000004
2540.79,0.778255,0.002004,,2.004e-06,2.004
2540.853,0.781526,0.002072,,2.072e-06,2.072
2540.919,0.7847970000000001,0.002193,,2.193e-06,2.193
2540.9829999999997,0.787724,0.002176,,2.176e-06,2.176
2541.047,0.7908229999999999,0.002107,,2.107e-06,2.107
2541.109,0.793922,0.002124,,2.124e-06,2.124
2541.176,0.797365,0.002279,,2.279e-06,2.279
2541.24,0.8004640000000001,0.002314,,2.314e-06,2.314
2541.305,0.803391,0.00221,,2.21e-06,2.21
2541.369,0.806662,0.002193,,2.193e-06,2.193
2541.4320000000002,0.810106,0.002279,,2.279e-06,2.279
2541.496,0.813377,0.002365,,2.365e-06,2.365
2541.571,0.816992,0.002279,,2.279e-06,2.279
2541.634,0.820263,0.002331,,2.331e-06,2.3309999999999995
2541.696,0.823018,0.002382,,2.382e-06,2.3819999999999997
2541.761,0.826117,0.0024,,2.4e-06,2.4
2541.825,0.829216,0.0022960000000000003,,2.296e-06,2.2960000000000003
2541.89,0.8330040000000001,0.002314,,2.314e-06,2.314
2541.9539999999997,0.83593,0.0024170000000000003,,2.4170000000000003e-06,2.4170000000000003
2542.019,0.839202,0.002434,,2.434e-06,2.434
2542.083,0.8421280000000001,0.002382,,2.382e-06,2.3819999999999997
2542.144,0.8450549999999999,0.002365,,2.365e-06,2.365
2542.206,0.8481540000000001,0.002348,,2.3480000000000002e-06,2.3480000000000003
2542.271,0.85177,0.002365,,2.365e-06,2.365
2542.335,0.8550409999999999,0.002468,,2.4680000000000003e-06,2.468
2542.3979999999997,0.8579680000000001,0.002503,,2.503e-06,2.503
2542.4629999999997,0.860894,0.002434,,2.434e-06,2.434
2542.527,0.864166,0.002365,,2.365e-06,2.365
2542.593,0.8674370000000001,0.002451,,2.451e-06,2.451
2542.658,0.8708799999999999,0.002537,,2.537e-06,2.5370000000000004
2542.723,0.873635,0.002503,,2.503e-06,2.503
2542.785,0.876734,0.002486,,2.486e-06,2.486
2542.848,0.8800049999999999,0.002451,,2.451e-06,2.451
2542.9120000000003,0.8832760000000001,0.00252,,2.52e-06,2.52
2542.976,0.886719,0.002606,,2.606e-06,2.6060000000000003
2543.0389999999998,0.8896459999999999,0.002641,,2.641e-06,2.641
2543.1079999999997,0.8927450000000001,0.002589,,2.5889999999999997e-06,2.589
2543.169,0.891368,0.000798,,7.979999999999999e-07,0.7979999999999999
2543.24,0.88913,0.00031600000000000004,,3.16e-07,0.3160000000000001
2543.305,0.886892,4.1e-05,,4.0999999999999997e-08,0.040999999999999995
2543.368,0.884481,-0.000114,,-1.14e-07,-0.114
2543.442,0.8815540000000001,-0.000166,,-1.66e-07,-0.166
2543.5029999999997,0.8788,-0.000286,,-2.86e-07,-0.28600000000000003
2543.565,0.876217,-0.000407,,-4.07e-07,-0.407
2543.631,0.873635,-0.000476,,-4.7600000000000003e-07,-0.47600000000000003
2543.697,0.8708799999999999,-0.000441,,-4.41e-07,-0.4410000000000001
2543.761,0.8677809999999999,-0.0005269999999999999,,-5.269999999999999e-07,-0.5269999999999999
2543.825,0.86451,-0.000665,,-6.65e-07,-0.665
2543.889,0.8617549999999999,-0.000717,,-7.170000000000001e-07,-0.7170000000000001
2543.955,0.859001,-0.000665,,-6.65e-07,-0.665
2544.019,0.8557290000000001,-0.000665,,-6.65e-07,-0.665
2544.0820000000003,0.8524579999999999,-0.0007509999999999999,,-7.509999999999998e-07,-0.7509999999999999
2544.146,0.849359,-0.0008539999999999999,,-8.539999999999998e-07,-0.8540000000000001
2544.2110000000002,0.846949,-0.0008539999999999999,,-8.539999999999998e-07,-0.8540000000000001
2544.274,0.8440219999999999,-0.000785,,-7.85e-07,-0.785
2544.339,0.8405790000000001,-0.0008539999999999999,,-8.539999999999998e-07,-0.8540000000000001
2544.401,0.8373079999999999,-0.000872,,-8.720000000000002e-07,-0.8720000000000001
2544.464,0.834209,-0.000975,,-9.75e-07,-0.975
2544.527,0.831282,-0.001026,,-1.026e-06,-1.026
2544.592,0.828355,-0.001026,,-1.026e-06,-1.026
2544.657,0.825256,-0.000975,,-9.75e-07,-0.975
2544.72,0.8219850000000001,-0.001044,,-1.044e-06,-1.044
2544.781,0.819058,-0.0010949999999999998,,-1.095e-06,-1.0949999999999998
2544.846,0.815615,-0.001216,,-1.2159999999999999e-06,-1.216
2544.91,0.81286,-0.001268,,-1.268e-06,-1.268
2544.975,0.809761,-0.001216,,-1.2159999999999999e-06,-1.216
2545.04,0.8064899999999999,-0.001285,,-1.285e-06,-1.285
2545.105,0.8032189999999999,-0.001422,,-1.422e-06,-1.4220000000000002
2545.1679999999997,0.800292,-0.001509,,-1.509e-06,-1.5090000000000001
2545.232,0.797365,-0.001526,,-1.5259999999999999e-06,-1.526
2545.294,0.794266,-0.001526,,-1.5259999999999999e-06,-1.526
2545.3579999999997,0.791167,-0.0015949999999999998,,-1.5949999999999996e-06,-1.5949999999999998
2545.422,0.787724,-0.001732,,-1.7319999999999999e-06,-1.732
2545.487,0.784625,-0.001887,,-1.8869999999999999e-06,-1.8869999999999998
2545.55,0.781698,-0.001939,,-1.939e-06,-1.939
2545.613,0.778943,-0.001973,,-1.973e-06,-1.973
2545.677,0.775672,-0.001991,,-1.991e-06,-1.9909999999999999
2545.741,0.772401,-0.002111,,-2.1109999999999998e-06,-2.1109999999999998
2545.806,0.769302,-0.002301,,-2.301e-06,-2.301
2545.87,0.766375,-0.0023350000000000003,,-2.335e-06,-2.3350000000000004
2545.9339999999997,0.763104,-0.002352,,-2.352e-06,-2.352
2545.999,0.760177,-0.002369,,-2.369e-06,-2.369
2546.062,0.7569060000000001,-0.00249,,-2.49e-06,-2.49
2546.1279999999997,0.753635,-0.002645,,-2.645e-06,-2.645
2546.1910000000003,0.75088,-0.0026620000000000003,,-2.662e-06,-2.6620000000000004
2546.258,0.747437,-0.002593,,-2.593e-06,-2.593
2546.32,0.74451,-0.002679,,-2.6789999999999997e-06,-2.679
2546.384,0.7414109999999999,-0.002834,,-2.8340000000000007e-06,-2.8339999999999996
2546.45,0.73814,-0.00292,,-2.92e-06,-2.92
2546.515,0.7353850000000001,-0.002851,,-2.8510000000000007e-06,-2.8510000000000004
2546.581,0.73177,-0.002955,,-2.955e-06,-2.955
2546.644,0.728671,-0.003092,,-3.0919999999999998e-06,-3.092
2546.708,0.725572,-0.00323,,-3.23e-06,-3.23
2546.772,0.722817,-0.003265,,-3.265e-06,-3.265
2546.8360000000002,0.719546,-0.003265,,-3.265e-06,-3.265
2546.9,0.7164470000000001,-0.003368,,-3.368e-06,-3.3680000000000003
2546.9629999999997,0.713348,-0.003557,,-3.557e-06,-3.557
2547.024,0.710421,-0.003712,,-3.712e-06,-3.712
2547.09,0.707322,-0.003919,,-3.919e-06,-3.919
2547.156,0.704396,-0.003971,,-3.971000000000001e-06,-3.971
