time,potential,current1_mA,coll_current,current1,current1_muA
1828.033,0.849015,-0.001052,,-1.052e-06,-1.052
1828.0970000000002,0.846088,-0.001035,,-1.0349999999999998e-06,-1.035
1828.164,0.842989,-0.00099,,-9.9e-07,-0.99
1828.23,0.8397180000000001,-0.001121,,-1.121e-06,-1.121
1828.2910000000002,0.836619,-0.001166,,-1.166e-06,-1.166
1828.3529999999998,0.833692,-0.0012109999999999998,,-1.211e-06,-1.211
1828.418,0.830593,-0.001183,,-1.183e-06,-1.183
1828.483,0.8274940000000001,-0.001149,,-1.149e-06,-1.149
1828.546,0.8243950000000001,-0.001207,,-1.207e-06,-1.207
1828.61,0.8212959999999999,-0.0013310000000000002,,-1.331e-06,-1.3310000000000002
1828.675,0.818025,-0.00139,,-1.39e-06,-1.39
1828.74,0.814926,-0.0013449999999999998,,-1.3449999999999998e-06,-1.3449999999999998
1828.8010000000002,0.811999,-0.001373,,-1.373e-06,-1.3730000000000002
1828.8629999999998,0.8089,-0.0014,,-1.4e-06,-1.4
1828.9279999999999,0.805974,-0.0015140000000000002,,-1.5140000000000005e-06,-1.5140000000000002
1828.99,0.8030470000000001,-0.00162,,-1.62e-06,-1.62
1829.0539999999999,0.799776,-0.001731,,-1.7309999999999996e-06,-1.731
1829.126,0.7961600000000001,-0.0017,,-1.6999999999999996e-06,-1.7
1829.1889999999999,0.793405,-0.001827,,-1.8269999999999998e-06,-1.827
1829.253,0.7903060000000001,-0.001975,,-1.975e-06,-1.975
1829.317,0.787207,-0.002027,,-2.027e-06,-2.0269999999999997
1829.382,0.784108,-0.002041,,-2.041e-06,-2.041
1829.4460000000001,0.7810090000000001,-0.002134,,-2.134e-06,-2.134
1829.51,0.77791,-0.002309,,-2.3090000000000003e-06,-2.309
1829.578,0.774467,-0.002423,,-2.4230000000000003e-06,-2.423
1829.639,0.77154,-0.0025050000000000003,,-2.505e-06,-2.5050000000000003
1829.701,0.768614,-0.002547,,-2.547e-06,-2.547
1829.766,0.765687,-0.0026260000000000003,,-2.6260000000000004e-06,-2.6260000000000003
1829.83,0.762588,-0.002771,,-2.771e-06,-2.7710000000000004
1829.8929999999998,0.7594890000000001,-0.002922,,-2.922e-06,-2.922
1829.957,0.75639,-0.002981,,-2.9810000000000003e-06,-2.9810000000000003
1830.021,0.7532909999999999,-0.002991,,-2.991e-06,-2.991
1830.088,0.750192,-0.003077,,-3.077e-06,-3.077
1830.149,0.747437,-0.003153,,-3.153e-06,-3.153
1830.2120000000002,0.744338,-0.00328,,-3.28e-06,-3.28
1830.277,0.741067,-0.003363,,-3.363e-06,-3.363
1830.3410000000001,0.737796,-0.003366,,-3.366e-06,-3.366
1830.4029999999998,0.734869,-0.003408,,-3.4080000000000002e-06,-3.408
1830.4679999999998,0.73177,-0.003511,,-3.5110000000000004e-06,-3.511
1830.533,0.728843,-0.003676,,-3.676e-06,-3.676
1830.5970000000002,0.725572,-0.003762,,-3.762e-06,-3.762
1830.658,0.722645,-0.003835,,-3.8350000000000006e-06,-3.835
1830.723,0.719546,-0.003848,,-3.848e-06,-3.8480000000000003
1830.7879999999998,0.7164470000000001,-0.003972,,-3.972e-06,-3.972
1830.851,0.713693,-0.004151,,-4.1510000000000006e-06,-4.151
1830.914,0.710594,-0.004348,,-4.348e-06,-4.348
1830.979,0.70715,-0.004478,,-4.478e-06,-4.4780000000000015
1831.0439999999999,0.7042229999999999,-0.004575,,-4.575e-06,-4.575
1831.115,0.700952,-0.004919,,-4.919e-06,-4.919
1831.1770000000001,0.698025,-0.005143,,-5.143e-06,-5.143
1831.239,0.694926,-0.005346,,-5.346e-06,-5.346
1831.3039999999999,0.6920000000000001,-0.005511,,-5.511e-06,-5.511
1831.368,0.689245,-0.005673,,-5.673e-06,-5.672999999999999
1831.432,0.686318,-0.005783,,-5.7829999999999995e-06,-5.7829999999999995
1831.497,0.682875,-0.00569,,-5.69e-06,-5.69
1831.5620000000001,0.6794319999999999,-0.005377000000000001,,-5.377e-06,-5.377000000000002
1831.628,0.676333,-0.005047,,-5.047e-06,-5.0470000000000015
1831.691,0.673234,-0.00485,,-4.85e-06,-4.8500000000000005
1831.761,0.6692739999999999,-0.004682,,-4.682e-06,-4.6819999999999995
1831.8270000000002,0.666347,-0.004602,,-4.602e-06,-4.602
1831.8929999999998,0.662904,-0.0047020000000000005,,-4.702e-06,-4.702000000000001
1831.961,0.659116,-0.004678,,-4.678e-06,-4.678
1832.025,0.656189,-0.004637,,-4.637e-06,-4.637
1832.089,0.653262,-0.0047020000000000005,,-4.702e-06,-4.702000000000001
1832.1529999999998,0.649991,-0.004802000000000001,,-4.802000000000002e-06,-4.8020000000000005
1832.214,0.64672,-0.004847,,-4.847e-06,-4.847
1832.279,0.643621,-0.004864,,-4.8639999999999995e-06,-4.864
1832.3429999999998,0.640178,-0.004823,,-4.823e-06,-4.823
1832.4229999999998,0.6362180000000001,-0.004861,,-4.8610000000000006e-06,-4.861000000000001
1832.487,0.633119,-0.0048920000000000005,,-4.892000000000002e-06,-4.8919999999999995
1832.5510000000002,0.630192,-0.004988,,-4.988e-06,-4.988
1832.615,0.627093,-0.005074,,-5.074e-06,-5.074000000000002
1832.6770000000001,0.623822,-0.005122,,-5.1219999999999986e-06,-5.122000000000001
1832.74,0.620379,-0.005122,,-5.1219999999999986e-06,-5.122000000000001
1832.8039999999999,0.61728,-0.005091,,-5.091e-06,-5.091
1832.868,0.6141810000000001,-0.005122,,-5.1219999999999986e-06,-5.122000000000001
1832.932,0.611082,-0.005233,,-5.233e-06,-5.233
1832.996,0.6079829999999999,-0.005305,,-5.305e-06,-5.305
1833.06,0.604539,-0.005301,,-5.3010000000000006e-06,-5.301
1833.122,0.60144,-0.005308,,-5.308e-06,-5.308
1833.183,0.598341,-0.005315,,-5.315e-06,-5.315
1833.25,0.59507,-0.005281,,-5.281e-06,-5.281000000000001
1833.3139999999999,0.591971,-0.005443,,-5.442999999999999e-06,-5.443
1833.3870000000002,0.588184,-0.005329,,-5.3289999999999984e-06,-5.329
1833.451,0.5850850000000001,-0.005370000000000001,,-5.37e-06,-5.370000000000001
1833.516,0.581813,-0.0054670000000000005,,-5.467e-06,-5.4670000000000005
1833.5810000000001,0.577854,-0.005418,,-5.4180000000000005e-06,-5.417999999999999
1833.6429999999998,0.575099,-0.005381,,-5.3810000000000015e-06,-5.381
1833.714,0.571656,-0.005463,,-5.462999999999999e-06,-5.462999999999999
1833.779,0.5682119999999999,-0.005474000000000001,,-5.474e-06,-5.474
1833.8429999999998,0.564941,-0.005408,,-5.408e-06,-5.408
1833.9089999999999,0.56167,-0.005384000000000001,,-5.3840000000000005e-06,-5.3839999999999995
1833.973,0.558571,-0.005449,,-5.449e-06,-5.449
1834.037,0.555128,-0.005501,,-5.501e-06,-5.501
1834.099,0.552029,-0.005505,,-5.505e-06,-5.505
1834.165,0.548758,-0.005412,,-5.412000000000001e-06,-5.412000000000001
1834.23,0.5454859999999999,-0.005449,,-5.449e-06,-5.449
1834.295,0.542215,-0.005539,,-5.539e-06,-5.539
1834.36,0.538944,-0.005539,,-5.539e-06,-5.539
1834.422,0.535845,-0.005505,,-5.505e-06,-5.505
1834.486,0.532574,-0.005484,,-5.4839999999999995e-06,-5.484
1834.5520000000001,0.529475,-0.005563,,-5.563e-06,-5.5630000000000015
1834.6170000000002,0.526204,-0.005642,,-5.642e-06,-5.642
1834.681,0.5227609999999999,-0.0056630000000000005,,-5.6630000000000015e-06,-5.662999999999999
1834.7420000000002,0.519662,-0.005677000000000001,,-5.677000000000002e-06,-5.6770000000000005
1834.8029999999999,0.516563,-0.005677000000000001,,-5.677000000000002e-06,-5.6770000000000005
1834.868,0.513636,-0.005679999999999999,,-5.679999999999998e-06,-5.68
1834.932,0.510537,-0.005787,,-5.787000000000001e-06,-5.787000000000001
1835.003,0.506749,-0.005839,,-5.8389999999999995e-06,-5.8389999999999995
1835.069,0.503822,-0.005852,,-5.852e-06,-5.852
1835.1329999999998,0.5007229999999999,-0.005949,,-5.949e-06,-5.949000000000002
1835.1979999999999,0.4974520000000001,-0.006093,,-6.093e-06,-6.093
1835.261,0.494009,-0.00608,,-6.0799999999999985e-06,-6.079999999999999
1835.3239999999998,0.491254,-0.006138,,-6.1379999999999995e-06,-6.138
1835.389,0.487983,-0.006148,,-6.1479999999999986e-06,-6.148
1835.453,0.485056,-0.006268999999999999,,-6.269e-06,-6.268999999999999
1835.519,0.481441,-0.006355,,-6.3549999999999984e-06,-6.355
1835.5839999999998,0.47817,-0.006268999999999999,,-6.269e-06,-6.268999999999999
1835.65,0.475071,-0.006286,,-6.2860000000000005e-06,-6.2860000000000005
1835.715,0.471972,-0.006393,,-6.393000000000001e-06,-6.393000000000002
1835.787,0.468184,-0.006255,,-6.255e-06,-6.255
1835.852,0.465085,-0.006241,,-6.241e-06,-6.2410000000000005
1835.915,0.461986,-0.00621,,-6.21e-06,-6.21
1835.979,0.458543,-0.006155,,-6.155e-06,-6.155
1836.0510000000002,0.455099,-0.005963,,-5.9629999999999995e-06,-5.962999999999999
1836.116,0.451828,-0.00589,,-5.89e-06,-5.8900000000000015
1836.181,0.448213,-0.005708,,-5.7079999999999985e-06,-5.707999999999998
1836.2520000000002,0.444941,-0.005505,,-5.505e-06,-5.505
1836.317,0.441498,-0.005422,,-5.422000000000001e-06,-5.422000000000001
1836.382,0.438227,-0.005208,,-5.208e-06,-5.207999999999999
1836.4479999999999,0.4349560000000001,-0.004964,,-4.9639999999999986e-06,-4.964
1836.5120000000002,0.431857,-0.004861,,-4.8610000000000006e-06,-4.861000000000001
1836.576,0.428758,-0.004775,,-4.775e-06,-4.775
1836.64,0.425315,-0.004657,,-4.657e-06,-4.657
1836.701,0.422388,-0.004547,,-4.547e-06,-4.547
1836.7620000000002,0.419117,-0.00442,,-4.42e-06,-4.42
1836.8270000000002,0.41619,-0.004258,,-4.258e-06,-4.258
1836.891,0.413263,-0.004213000000000001,,-4.213000000000002e-06,-4.213000000000001
1836.955,0.40982,-0.00421,,-4.21e-06,-4.21
1837.02,0.406548,-0.004162,,-4.162e-06,-4.162
1837.0829999999999,0.40345,-0.004045,,-4.045e-06,-4.045
1837.149,0.400351,-0.003941,,-3.941e-06,-3.9410000000000003
1837.227,0.396391,-0.003883,,-3.883e-06,-3.883
1837.2920000000001,0.393292,-0.003924,,-3.924e-06,-3.924
1837.354,0.390365,-0.003934,,-3.934e-06,-3.9339999999999997
1837.4170000000001,0.387266,-0.0039380000000000005,,-3.938e-06,-3.9380000000000006
1837.481,0.383995,-0.003855,,-3.855e-06,-3.855
1837.547,0.380896,-0.003735,,-3.735e-06,-3.735
1837.6129999999998,0.377797,-0.003841,,-3.841e-06,-3.841
1837.6770000000001,0.374698,-0.003872,,-3.8719999999999995e-06,-3.872
1837.74,0.371427,-0.003855,,-3.855e-06,-3.855
1837.809,0.367983,-0.003728,,-3.728e-06,-3.728
1837.8729999999998,0.364884,-0.003821,,-3.821e-06,-3.821
1837.943,0.361441,-0.0038,,-3.8e-06,-3.8
1838.006,0.358514,-0.003745000000000001,,-3.7450000000000006e-06,-3.745000000000001
1838.07,0.355243,-0.003793,,-3.793e-06,-3.793
1838.134,0.352316,-0.003876,,-3.876e-06,-3.8760000000000003
1838.1989999999998,0.349045,-0.00389,,-3.89e-06,-3.89
1838.261,0.346118,-0.003876,,-3.876e-06,-3.8760000000000003
1838.3229999999999,0.343191,-0.003831,,-3.831e-06,-3.831
1838.3929999999998,0.33992,-0.003893,,-3.893e-06,-3.8930000000000002
1838.457,0.336821,-0.00391,,-3.9100000000000015e-06,-3.91
1838.521,0.33355,-0.003855,,-3.855e-06,-3.855
1838.5839999999998,0.330451,-0.003793,,-3.793e-06,-3.793
1838.649,0.32718,-0.003776,,-3.7760000000000004e-06,-3.7760000000000002
1838.713,0.323909,-0.003869,,-3.869e-06,-3.869
1838.7779999999998,0.320982,-0.003897,,-3.897e-06,-3.897
1838.85,0.317367,-0.00379,,-3.79e-06,-3.79
1838.915,0.314095,-0.0039,,-3.9e-06,-3.9
1838.981,0.310996,-0.003859000000000001,,-3.8590000000000015e-06,-3.859
1839.047,0.307725,-0.003779,,-3.779e-06,-3.779
1839.112,0.304626,-0.003862,,-3.862e-06,-3.862
1839.1770000000001,0.301183,-0.003924,,-3.924e-06,-3.924
1839.245,0.298256,-0.0038,,-3.8e-06,-3.8
1839.306,0.294985,-0.003783,,-3.783e-06,-3.783
1839.37,0.29188600000000003,-0.003835,,-3.8350000000000006e-06,-3.835
1839.435,0.288443,-0.00391,,-3.9100000000000015e-06,-3.91
1839.5,0.285516,-0.00389,,-3.89e-06,-3.89
1839.566,0.28241700000000003,-0.003776,,-3.7760000000000004e-06,-3.7760000000000002
1839.6329999999998,0.278801,-0.003862,,-3.862e-06,-3.862
1839.6979999999999,0.275702,-0.00389,,-3.89e-06,-3.89
1839.763,0.27260300000000004,-0.003814,,-3.814e-06,-3.8139999999999996
1839.8270000000002,0.269504,-0.003748,,-3.748e-06,-3.748
1839.888,0.26657800000000004,-0.003752,,-3.752e-06,-3.752
1839.954,0.262962,-0.003845,,-3.8450000000000005e-06,-3.845
1840.02,0.260208,-0.003841,,-3.841e-06,-3.841
1840.085,0.256936,-0.003748,,-3.748e-06,-3.748
1840.149,0.25366500000000003,-0.003738,,-3.738000000000001e-06,-3.738
1840.213,0.250394,-0.00381,,-3.81e-06,-3.81
1840.276,0.247295,-0.003859000000000001,,-3.8590000000000015e-06,-3.859
1840.338,0.244368,-0.003869,,-3.869e-06,-3.869
1840.4070000000002,0.241097,-0.003748,,-3.748e-06,-3.748
1840.471,0.237826,-0.003779,,-3.779e-06,-3.779
1840.535,0.234727,-0.003859000000000001,,-3.8590000000000015e-06,-3.859
1840.599,0.23162800000000006,-0.003883,,-3.883e-06,-3.883
1840.664,0.228529,-0.003797,,-3.797e-06,-3.7969999999999997
1840.73,0.225258,-0.003786,,-3.7860000000000003e-06,-3.786
1840.8,0.221815,-0.003886,,-3.8860000000000006e-06,-3.886
1840.862,0.218888,-0.003848,,-3.848e-06,-3.8480000000000003
1840.9289999999999,0.215272,-0.003773,,-3.773e-06,-3.773
1840.997,0.212001,-0.003914,,-3.914e-06,-3.9139999999999997
1841.0639999999999,0.208902,-0.003841,,-3.841e-06,-3.841
1841.129,0.205631,-0.003804,,-3.804e-06,-3.804
1841.192,0.202532,-0.003859000000000001,,-3.8590000000000015e-06,-3.859
1841.255,0.199433,-0.003945000000000001,,-3.945e-06,-3.9450000000000007
1841.316,0.196506,-0.003948,,-3.948e-06,-3.948
1841.379,0.193235,-0.0040030000000000005,,-4.0030000000000005e-06,-4.003
1841.445,0.190136,-0.003941,,-3.941e-06,-3.9410000000000003
1841.51,0.186865,-0.003921,,-3.921e-06,-3.9210000000000003
1841.576,0.183766,-0.004069,,-4.069e-06,-4.069
1841.641,0.180667,-0.004113,,-4.113e-06,-4.113
1841.705,0.177396,-0.004082,,-4.082e-06,-4.082
1841.7679999999998,0.174297,-0.004069,,-4.069e-06,-4.069
1841.829,0.17137,-0.004103,,-4.103e-06,-4.103
1841.891,0.168271,-0.004158,,-4.158e-06,-4.158
1841.957,0.165172,-0.004293,,-4.293e-06,-4.293
1842.021,0.161901,-0.004358,,-4.3580000000000005e-06,-4.3580000000000005
1842.089,0.15931800000000002,-0.005842,,-5.842e-06,-5.8420000000000005
1842.1529999999998,0.156219,-0.005845,,-5.845000000000002e-06,-5.8450000000000015
1842.217,0.152948,-0.00556,,-5.56e-06,-5.56
1842.281,0.149849,-0.005339,,-5.339e-06,-5.3389999999999995
1842.346,0.146406,-0.005115,,-5.115e-06,-5.114999999999998
1842.4129999999998,0.14313499999999998,-0.004912,,-4.912e-06,-4.912
1842.49,0.139347,-0.004847,,-4.847e-06,-4.847
1842.555,0.136076,-0.004905,,-4.905e-06,-4.9049999999999985
1842.619,0.132633,-0.004998,,-4.998e-06,-4.998
1842.683,0.12953399999999998,-0.005019,,-5.019e-06,-5.019
1842.744,0.126607,-0.005057,,-5.057e-06,-5.057
1842.809,0.123336,-0.005057,,-5.057e-06,-5.057
1842.874,0.120409,-0.005122,,-5.1219999999999986e-06,-5.122000000000001
1842.9520000000002,0.116449,-0.005222,,-5.222e-06,-5.222
1843.017,0.11335,-0.005346,,-5.346e-06,-5.346
1843.082,0.110079,-0.005529,,-5.529e-06,-5.529
1843.145,0.10698,-0.005608,,-5.6079999999999995e-06,-5.6080000000000005
1843.2089999999998,0.103709,-0.005653,,-5.653e-06,-5.6530000000000005
1843.2720000000002,0.100954,-0.0057350000000000005,,-5.735e-06,-5.735
1843.34,0.097683,-0.006004,,-6.004e-06,-6.004
1843.4029999999998,0.094584,-0.006166,,-6.166e-06,-6.166
1843.469,0.091313,-0.006283,,-6.283e-06,-6.283
1843.533,0.088386,-0.006476000000000001,,-6.476000000000001e-06,-6.476000000000001
1843.598,0.085287,-0.006706,,-6.706e-06,-6.706
1843.664,0.08201599999999999,-0.006992,,-6.992e-06,-6.992000000000001
1843.7279999999998,0.078917,-0.0072159999999999985,,-7.215999999999998e-06,-7.215999999999998
1843.7939999999999,0.076162,-0.007522,,-7.522e-06,-7.522
1843.858,0.07323500000000001,-0.007939,,-7.939e-06,-7.939
1843.9189999999999,0.070136,-0.008345,,-8.345e-06,-8.345
1843.984,0.06669299999999999,-0.008865000000000001,,-8.865e-06,-8.865000000000002
1844.0479999999998,0.063766,-0.009392,,-9.392000000000001e-06,-9.392000000000001
1844.1129999999998,0.06084,-0.010046,,-1.0046e-05,-10.046
1844.1770000000001,0.058257,-0.010907,,-1.0907e-05,-10.907
1844.2420000000002,0.055158000000000006,-0.011923,,-1.1923e-05,-11.923
1844.307,0.054125,-0.008931,,-8.931e-06,-8.931000000000001
1844.38,0.055675,-0.004988,,-4.988e-06,-4.988
1844.442,0.057396,-0.003621,,-3.621e-06,-3.6210000000000004
1844.506,0.05929,-0.002574,,-2.574e-06,-2.574
1844.57,0.061356,-0.0017,,-1.6999999999999996e-06,-1.7
1844.635,0.063939,-0.001063,,-1.0630000000000002e-06,-1.0630000000000002
1844.701,0.066521,-0.000725,,-7.249999999999998e-07,-0.725
1844.766,0.069276,-0.000484,,-4.839999999999999e-07,-0.484
1844.8329999999999,0.07203,-0.000123,,-1.23e-07,-0.123
1844.895,0.075129,2.9e-05,,2.9e-08,0.029
1844.9560000000001,0.07822799999999999,5e-06,,5e-09,0.005
1845.0220000000002,0.081327,-6.4e-05,,-6.399999999999999e-08,-0.064
1845.086,0.084254,-0.000116,,-1.16e-07,-0.116
1845.151,0.087353,-6.8e-05,,-6.8e-08,-0.068
1845.214,0.090796,-4.3e-05,,-4.3e-08,-0.043
1845.2779999999998,0.09424,-0.000188,,-1.8800000000000002e-07,-0.188
1845.3429999999998,0.097167,-0.00032900000000000003,,-3.2900000000000005e-07,-0.32899999999999996
1845.406,0.100438,-0.000408,,-4.0799999999999995e-07,-0.408
1845.467,0.103364,-0.00047,,-4.700000000000001e-07,-0.47
1845.5379999999998,0.107496,-0.000488,,-4.879999999999999e-07,-0.488
1845.6029999999998,0.110768,-0.000643,,-6.429999999999999e-07,-0.643
1845.668,0.113867,-0.000667,,-6.669999999999999e-07,-0.6669999999999999
1845.737,0.117654,-0.000674,,-6.74e-07,-0.674
1845.7979999999998,0.120753,-0.000808,,-8.079999999999999e-07,-0.8079999999999999
1845.8629999999998,0.123852,-0.000901,,-9.009999999999999e-07,-0.9009999999999999
1845.9270000000001,0.127296,-0.000959,,-9.59e-07,-0.9590000000000001
1845.991,0.130394,-0.000884,,-8.84e-07,-0.884
1846.056,0.13401,-0.000942,,-9.42e-07,-0.942
1846.12,0.13710899999999998,-0.001094,,-1.0939999999999998e-06,-1.094
1846.1879999999999,0.140552,-0.001173,,-1.173e-06,-1.173
1846.253,0.143823,-0.001008,,-1.008e-06,-1.008
1846.318,0.147267,-0.001266,,-1.266e-06,-1.266
1846.3870000000002,0.15070999999999998,-0.001221,,-1.221e-06,-1.2209999999999999
1846.4479999999999,0.153809,-0.00129,,-1.29e-06,-1.29
1846.511,0.156908,-0.001242,,-1.242e-06,-1.242
1846.575,0.160179,-0.00128,,-1.28e-06,-1.28
1846.644,0.163622,-0.001438,,-1.438e-06,-1.4380000000000002
1846.7060000000001,0.166721,-0.001424,,-1.4239999999999996e-06,-1.4240000000000002
1846.77,0.170165,-0.001369,,-1.3690000000000001e-06,-1.369
1846.8339999999998,0.173264,-0.001373,,-1.373e-06,-1.3730000000000002
1846.8970000000002,0.17636300000000002,-0.001452,,-1.4519999999999998e-06,-1.452
1846.9620000000002,0.179634,-0.001538,,-1.538e-06,-1.538
1847.026,0.182905,-0.001541,,-1.5410000000000004e-06,-1.541
1847.089,0.186004,-0.001493,,-1.4930000000000001e-06,-1.493
1847.18,0.19048,-0.001586,,-1.586e-06,-1.586
1847.259,0.19444,-0.00151,,-1.5100000000000004e-06,-1.51
1847.325,0.197883,-0.001627,,-1.6269999999999998e-06,-1.6269999999999998
1847.39,0.200982,-0.001538,,-1.538e-06,-1.538
1847.454,0.204254,-0.001541,,-1.5410000000000004e-06,-1.541
1847.5179999999998,0.207525,-0.001627,,-1.6269999999999998e-06,-1.6269999999999998
1847.58,0.210279,-0.0016579999999999998,,-1.6579999999999996e-06,-1.6579999999999997
1847.642,0.213206,-0.001682,,-1.6820000000000004e-06,-1.6820000000000002
1847.704,0.216477,-0.001669,,-1.669e-06,-1.669
1847.767,0.219921,-0.001607,,-1.6069999999999996e-06,-1.607
1847.832,0.22302,-0.001541,,-1.5410000000000004e-06,-1.541
1847.8970000000002,0.226291,-0.00161,,-1.61e-06,-1.61
1847.9660000000001,0.229734,-0.001638,,-1.6379999999999996e-06,-1.6380000000000001
1848.03,0.232833,-0.001548,,-1.548e-06,-1.548
1848.094,0.235932,-0.001534,,-1.534e-06,-1.534
1848.158,0.239031,-0.00161,,-1.61e-06,-1.61
1848.221,0.24213,-0.0016649999999999998,,-1.6649999999999995e-06,-1.6649999999999998
1848.286,0.245573,-0.00162,,-1.62e-06,-1.62
1848.35,0.248845,-0.001548,,-1.548e-06,-1.548
1848.418,0.251944,-0.001631,,-1.631e-06,-1.6309999999999998
1848.48,0.255215,-0.001672,,-1.6719999999999996e-06,-1.672
1848.547,0.258658,-0.001627,,-1.6269999999999998e-06,-1.6269999999999998
1848.612,0.261757,-0.001562,,-1.5619999999999998e-06,-1.5619999999999998
1848.6770000000001,0.264856,-0.0016239999999999998,,-1.6239999999999996e-06,-1.624
1848.745,0.26829899999999995,-0.001679,,-1.6790000000000001e-06,-1.6789999999999998
1848.809,0.271743,-0.001603,,-1.6030000000000002e-06,-1.6030000000000002
1848.8729999999998,0.274497,-0.001576,,-1.576e-06,-1.5759999999999998
1848.9360000000001,0.277424,-0.00161,,-1.61e-06,-1.61
1848.9979999999998,0.280695,-0.001655,,-1.655e-06,-1.655
1849.0629999999999,0.284139,-0.001686,,-1.686e-06,-1.686
1849.1270000000002,0.28741,-0.00162,,-1.62e-06,-1.62
1849.192,0.290509,-0.001541,,-1.5410000000000004e-06,-1.541
