time,potential,current1_mA,coll_current,current1,current1_muA
55.588,0.081499,-0.020817,,-2.0817e-05,-20.816999999999997
55.644,0.07874500000000001,-0.021068,,-2.1068000000000002e-05,-21.068
55.701,0.075646,-0.021388,,-2.1388000000000003e-05,-21.388
55.758,0.072719,-0.021819,,-2.1819000000000002e-05,-21.819000000000003
55.816,0.070136,-0.022298,,-2.2298000000000002e-05,-22.298000000000002
55.873000000000005,0.067554,-0.022828,,-2.2828e-05,-22.828000000000003
55.928999999999995,0.064972,-0.023368,,-2.3368e-05,-23.368000000000002
55.985,0.062217,-0.02394,,-2.394e-05,-23.94
56.041000000000004,0.05963400000000001,-0.024653,,-2.4653000000000006e-05,-24.653
56.098,0.056708,-0.025545,,-2.5545e-05,-25.545
56.156000000000006,0.054125,-0.026619,,-2.6619e-05,-26.619
56.211999999999996,0.053264,-0.024188,,-2.4188000000000003e-05,-24.188
56.269,0.054469,-0.018658,,-1.8658e-05,-18.658
56.326,0.055847,-0.016041,,-1.6040999999999998e-05,-16.041
56.383,0.057396,-0.014268,,-1.4268e-05,-14.267999999999999
56.44,0.05929,-0.012935,,-1.2935e-05,-12.935
56.496,0.061528,-0.011995,,-1.1995e-05,-11.995
56.553999999999995,0.063766,-0.011262,,-1.1262000000000003e-05,-11.262
56.608999999999995,0.066349,-0.010711,,-1.0711e-05,-10.710999999999999
56.663999999999994,0.06893099999999999,-0.010243,,-1.0243e-05,-10.243
56.722,0.071686,-0.009933,,-9.933e-06,-9.933
56.778,0.074268,-0.009764,,-9.764e-06,-9.764
56.835,0.07702300000000001,-0.009681,,-9.681e-06,-9.681
56.894,0.07995,-0.009602,,-9.602e-06,-9.602
56.95,0.083049,-0.009564,,-9.564e-06,-9.564
57.006,0.085976,-0.009482,,-9.481999999999997e-06,-9.482000000000001
57.062,0.08872999999999999,-0.009437,,-9.437e-06,-9.437
57.122,0.091829,-0.009457,,-9.457000000000001e-06,-9.457
57.178000000000004,0.094412,-0.009502,,-9.502e-06,-9.502
57.233999999999995,0.097339,-0.009588,,-9.588e-06,-9.588
57.297,0.100438,-0.009557,,-9.557e-06,-9.557
57.352,0.103709,-0.009626,,-9.626e-06,-9.626
57.41,0.106636,-0.00963,,-9.63e-06,-9.63
57.467,0.109562,-0.009599,,-9.599e-06,-9.599
57.523999999999994,0.112489,-0.009571,,-9.571e-06,-9.571
57.58,0.115244,-0.009575,,-9.575e-06,-9.575
57.638000000000005,0.117826,-0.009609,,-9.609e-06,-9.609
57.696000000000005,0.120753,-0.009661,,-9.661e-06,-9.661
57.755,0.12368,-0.009692,,-9.692e-06,-9.692
57.815,0.126951,-0.009685,,-9.685e-06,-9.685
57.876999999999995,0.13005,-0.00964,,-9.64e-06,-9.64
57.934,0.132805,-0.009695,,-9.695e-06,-9.695
57.99100000000001,0.135904,-0.009716,,-9.715999999999996e-06,-9.716000000000001
58.047,0.139003,-0.010022,,-1.0022e-05,-10.022
58.102,0.141413,-0.009964,,-9.964e-06,-9.964
58.158,0.14416800000000002,-0.009864,,-9.864e-06,-9.864
58.215,0.146922,-0.009878,,-9.878e-06,-9.878
58.273999999999994,0.149677,-0.009864,,-9.864e-06,-9.864
58.32899999999999,0.152776,-0.00984,,-9.84e-06,-9.84
58.39,0.155875,-0.009833,,-9.832999999999999e-06,-9.833
58.452,0.158802,-0.009829,,-9.829e-06,-9.829
58.50899999999999,0.16172899999999998,-0.009816,,-9.816e-06,-9.816
58.565,0.164483,-0.00975,,-9.75e-06,-9.75
58.625,0.16758199999999998,-0.00975,,-9.75e-06,-9.75
58.681999999999995,0.170165,-0.009723,,-9.723e-06,-9.722999999999999
58.739,0.17291900000000002,-0.009733,,-9.733e-06,-9.732999999999999
58.795,0.175846,-0.009795,,-9.795e-06,-9.795
58.851000000000006,0.178429,-0.009833,,-9.832999999999999e-06,-9.833
58.906000000000006,0.181528,-0.00976,,-9.76e-06,-9.76
58.961000000000006,0.184282,-0.009709,,-9.709e-06,-9.709
59.018,0.186865,-0.009743,,-9.743e-06,-9.743
59.075,0.18962,-0.009819,,-9.819e-06,-9.819
59.132,0.192546,-0.00986,,-9.86e-06,-9.86
59.193999999999996,0.195473,-0.009847,,-9.847e-06,-9.847000000000001
59.248999999999995,0.198572,-0.009857,,-9.857e-06,-9.857000000000001
59.306999999999995,0.201327,-0.009822,,-9.821999999999997e-06,-9.822000000000001
59.364,0.204081,-0.00975,,-9.75e-06,-9.75
59.42100000000001,0.207008,-0.009709,,-9.709e-06,-9.709
59.482,0.209935,-0.009712,,-9.712000000000001e-06,-9.712
59.538999999999994,0.212518,-0.009709,,-9.709e-06,-9.709
59.597,0.215444,-0.00974,,-9.74e-06,-9.74
59.652,0.218371,-0.009812,,-9.812000000000004e-06,-9.812
59.708999999999996,0.221126,-0.009785,,-9.785e-06,-9.785
59.765,0.22405300000000006,-0.009678,,-9.678e-06,-9.677999999999999
59.821999999999996,0.226807,-0.009619,,-9.619e-06,-9.619
59.885,0.229734,-0.009633,,-9.633e-06,-9.633
59.941,0.232661,-0.009568,,-9.567999999999999e-06,-9.568
59.998000000000005,0.235416,-0.009585,,-9.585e-06,-9.585
60.056000000000004,0.23817,-0.009612,,-9.612e-06,-9.612
60.115,0.241269,-0.009602,,-9.602e-06,-9.602
60.172,0.244024,-0.009612,,-9.612e-06,-9.612
60.229,0.24695100000000006,-0.009568,,-9.567999999999999e-06,-9.568
60.285,0.250222,-0.010518,,-1.0518000000000003e-05,-10.517999999999999
60.342,0.253149,-0.011937,,-1.1937000000000001e-05,-11.937000000000001
60.397,0.25590300000000005,-0.01132,,-1.132e-05,-11.32
60.453,0.258486,-0.010928,,-1.0928e-05,-10.927999999999999
60.51,0.26124,-0.010676,,-1.0676e-05,-10.675999999999998
60.566,0.263823,-0.010449,,-1.0449000000000001e-05,-10.449000000000002
60.628,0.26675,-0.01036,,-1.036e-05,-10.36
60.684,0.269677,-0.010184,,-1.0184e-05,-10.184
60.74100000000001,0.272431,-0.010088,,-1.0088e-05,-10.088
60.797,0.275186,-0.010067,,-1.0067e-05,-10.067
60.853,0.277941,-0.010081,,-1.0081e-05,-10.081
60.908,0.280351,-0.010015,,-1.0015000000000003e-05,-10.015
60.963,0.28327800000000003,-0.009878,,-9.878e-06,-9.878
61.021,0.28586,-0.009812,,-9.812000000000004e-06,-9.812
61.077,0.288959,-0.009812,,-9.812000000000004e-06,-9.812
61.132,0.291542,-0.009853,,-9.853e-06,-9.853000000000002
61.19,0.294296,-0.009788,,-9.788e-06,-9.788
61.246,0.297051,-0.009678,,-9.678e-06,-9.677999999999999
61.302,0.299978,-0.009537,,-9.537e-06,-9.537
61.357,0.30256,-0.009533,,-9.533e-06,-9.533
61.412,0.305315,-0.009564,,-9.564e-06,-9.564
61.468999999999994,0.30806999999999995,-0.009513,,-9.513e-06,-9.512999999999998
61.526,0.310996,-0.009413,,-9.413e-06,-9.413
61.583,0.313751,-0.009296,,-9.296e-06,-9.296
61.647,0.31719400000000003,-0.009299,,-9.299e-06,-9.299
61.703,0.319777,-0.009154,,-9.153999999999999e-06,-9.154
61.75899999999999,0.32253200000000004,-0.009086,,-9.086e-06,-9.086
61.817,0.325458,-0.009068,,-9.068000000000004e-06,-9.068
61.872,0.32821300000000003,-0.009092,,-9.092e-06,-9.092
61.927,0.330968,-0.008986,,-8.986e-06,-8.985999999999997
61.982,0.33355,-0.008862,,-8.862000000000001e-06,-8.862
62.038000000000004,0.336477,-0.008827,,-8.827e-06,-8.827
62.095,0.339059,-0.008841,,-8.841e-06,-8.841000000000001
62.152,0.341986,-0.008814,,-8.813999999999999e-06,-8.814
62.208999999999996,0.344913,-0.008714,,-8.714e-06,-8.713999999999999
62.263999999999996,0.347323,-0.008551999999999999,,-8.551999999999999e-06,-8.552
62.318999999999996,0.35025,-0.008486,,-8.486e-06,-8.486
62.376000000000005,0.353005,-0.00848,,-8.48e-06,-8.48
62.433,0.35576,-0.008476000000000001,,-8.476000000000003e-06,-8.476
62.49,0.358686,-0.008421,,-8.421e-06,-8.421
62.545,0.361441,-0.008273,,-8.273e-06,-8.273000000000001
62.601000000000006,0.364196,-0.00817,,-8.17e-06,-8.17
62.658,0.36695,-0.008121,,-8.120999999999999e-06,-8.121
62.714,0.369877,-0.008128,,-8.127999999999999e-06,-8.128
62.77,0.372632,-0.00807,,-8.07e-06,-8.07
62.825,0.375214,-0.007911,,-7.911000000000001e-06,-7.9110000000000005
62.882,0.378141,-0.007829000000000001,,-7.828999999999999e-06,-7.8290000000000015
62.938,0.380896,-0.0078010000000000015,,-7.801e-06,-7.801000000000001
62.996,0.38365,-0.007776999999999998,,-7.776999999999999e-06,-7.776999999999999
63.056000000000004,0.386577,-0.007698,,-7.698e-06,-7.6979999999999995
63.113,0.389332,-0.00765,,-7.65e-06,-7.649999999999999
63.17,0.392431,-0.00755,,-7.55e-06,-7.550000000000002
63.225,0.395013,-0.007364,,-7.364e-06,-7.364
63.281000000000006,0.39794,-0.007261,,-7.261e-06,-7.261
63.338,0.400523,-0.007229999999999999,,-7.2299999999999985e-06,-7.229999999999999
63.395,0.403277,-0.007195,,-7.195e-06,-7.195
63.45,0.406204,-0.007106,,-7.106e-06,-7.106000000000001
63.505,0.408959,-0.006934,,-6.934e-06,-6.934
63.563,0.411713,-0.006806,,-6.806000000000001e-06,-6.806
63.621,0.41464,-0.006696,,-6.696e-06,-6.696000000000001
63.677,0.417051,-0.006640999999999999,,-6.6410000000000005e-06,-6.640999999999999
63.74,0.42015,-0.006431,,-6.431e-06,-6.431
63.795,0.422904,-0.006369,,-6.369e-06,-6.369
63.852,0.426003,-0.006224,,-6.224e-06,-6.224
63.91,0.42893,-0.006035,,-6.0350000000000015e-06,-6.035
63.966,0.431685,-0.005808,,-5.807999999999999e-06,-5.808
64.024,0.434267,-0.005639,,-5.639e-06,-5.638999999999999
64.08,0.43685,-0.00548,,-5.48e-06,-5.48
64.13600000000001,0.439604,-0.005329,,-5.3289999999999984e-06,-5.329
64.2,0.442703,-0.005019,,-5.019e-06,-5.019
64.257,0.445458,-0.004843,,-4.843e-06,-4.843
64.314,0.448213,-0.004664,,-4.664e-06,-4.664
64.37,0.451312,-0.00442,,-4.42e-06,-4.42
64.425,0.453894,-0.004151,,-4.1510000000000006e-06,-4.151
64.48100000000001,0.456304,-0.003972,,-3.972e-06,-3.972
64.538,0.459059,-0.003845,,-3.8450000000000005e-06,-3.845
64.596,0.461986,-0.003714,,-3.714e-06,-3.714
64.653,0.465085,-0.003552000000000001,,-3.552000000000001e-06,-3.5520000000000005
64.712,0.468012,-0.003394,,-3.3939999999999996e-06,-3.394
64.768,0.470766,-0.003225,,-3.225e-06,-3.225
64.82600000000001,0.473693,-0.003091,,-3.091e-06,-3.091
64.882,0.476104,-0.003032,,-3.032e-06,-3.032
64.937,0.478858,-0.003087,,-3.087e-06,-3.087
64.993,0.481957,-0.003049,,-3.048999999999999e-06,-3.0489999999999995
65.05,0.484884,-0.003032,,-3.032e-06,-3.032
65.107,0.487811,-0.0029530000000000003,,-2.9530000000000008e-06,-2.9530000000000003
65.165,0.490738,-0.002936,,-2.9360000000000003e-06,-2.9360000000000004
65.223,0.49332,-0.002936,,-2.9360000000000003e-06,-2.9360000000000004
65.279,0.496075,-0.002994,,-2.9939999999999996e-06,-2.9939999999999998
65.336,0.4990020000000001,-0.003056,,-3.056e-06,-3.056
65.392,0.502101,-0.003077,,-3.077e-06,-3.077
65.447,0.505027,-0.003015,,-3.015e-06,-3.015
65.502,0.5074380000000001,-0.003018,,-3.018e-06,-3.0180000000000002
65.557,0.510192,-0.003101,,-3.101e-06,-3.1010000000000004
65.61399999999999,0.5132909999999999,-0.003129,,-3.1289999999999996e-06,-3.1289999999999996
65.671,0.51639,-0.003098,,-3.098e-06,-3.0980000000000003
65.727,0.5189729999999999,-0.003025,,-3.025e-06,-3.025
65.78699999999999,0.522072,-0.003018,,-3.018e-06,-3.0180000000000002
65.844,0.524826,-0.002981,,-2.9810000000000003e-06,-2.9810000000000003
65.9,0.527237,-0.003005,,-3.005e-06,-3.005
65.957,0.5303359999999999,-0.003029,,-3.0289999999999997e-06,-3.029
66.012,0.533263,-0.003018,,-3.018e-06,-3.0180000000000002
66.067,0.536189,-0.0029010000000000004,,-2.9010000000000007e-06,-2.901
66.126,0.538944,-0.002836,,-2.836e-06,-2.8360000000000003
66.182,0.5415270000000001,-0.002788,,-2.788e-06,-2.7880000000000003
66.23899999999999,0.544281,-0.002771,,-2.771e-06,-2.7710000000000004
66.295,0.547208,-0.002788,,-2.788e-06,-2.7880000000000003
66.35,0.550135,-0.002726,,-2.726e-06,-2.7260000000000004
66.407,0.55289,-0.002616,,-2.616e-06,-2.616
66.46300000000001,0.5554720000000001,-0.002547,,-2.547e-06,-2.547
66.521,0.558227,-0.002499,,-2.499e-06,-2.499
66.577,0.5609810000000001,-0.002523,,-2.523e-06,-2.523
66.633,0.56408,-0.002478,,-2.478e-06,-2.478
66.69,0.5670069999999999,-0.002381,,-2.381e-06,-2.381
66.748,0.569762,-0.002299,,-2.299e-06,-2.299
66.805,0.572344,-0.002209,,-2.209e-06,-2.209
66.862,0.575099,-0.002189,,-2.189e-06,-2.189
66.926,0.578542,-0.002123,,-2.1230000000000003e-06,-2.123
66.98100000000001,0.5809529999999999,-0.002106,,-2.106e-06,-2.106
67.038,0.583707,-0.002096,,-2.0960000000000003e-06,-2.096
67.096,0.586806,-0.002078,,-2.0780000000000003e-06,-2.0780000000000003
67.152,0.589733,-0.002013,,-2.013e-06,-2.013
67.209,0.592488,-0.001899,,-1.8990000000000002e-06,-1.899
67.264,0.59507,-0.0018,,-1.8000000000000001e-06,-1.8
67.32300000000001,0.597825,-0.001741,,-1.741e-06,-1.741
67.38,0.60058,-0.001741,,-1.741e-06,-1.741
67.436,0.603506,-0.001779,,-1.779e-06,-1.7790000000000001
67.494,0.606433,-0.001765,,-1.7649999999999996e-06,-1.765
67.55,0.609532,-0.00172,,-1.72e-06,-1.72
67.609,0.612287,-0.001686,,-1.686e-06,-1.686
67.665,0.615041,-0.001634,,-1.6340000000000002e-06,-1.634
67.722,0.617796,-0.001645,,-1.645e-06,-1.645
67.779,0.6205510000000001,-0.001696,,-1.696e-06,-1.696
67.835,0.623478,-0.0017510000000000002,,-1.7510000000000005e-06,-1.751
67.893,0.626404,-0.001744,,-1.7440000000000004e-06,-1.7440000000000002
67.95,0.6293310000000001,-0.00171,,-1.71e-06,-1.7100000000000002
68.008,0.632258,-0.0016579999999999998,,-1.6579999999999996e-06,-1.6579999999999997
68.063,0.634668,-0.001631,,-1.631e-06,-1.6309999999999998
68.126,0.638112,-0.0017170000000000002,,-1.7170000000000005e-06,-1.7170000000000003
68.182,0.640694,-0.001703,,-1.703e-06,-1.703
68.23899999999999,0.6434489999999999,-0.0017170000000000002,,-1.7170000000000005e-06,-1.7170000000000003
68.295,0.6463760000000001,-0.001755,,-1.755e-06,-1.755
68.351,0.649475,-0.001707,,-1.707e-06,-1.7069999999999999
68.407,0.652057,-0.001627,,-1.6269999999999998e-06,-1.6269999999999998
68.46300000000001,0.65464,-0.001603,,-1.6030000000000002e-06,-1.6030000000000002
68.51899999999999,0.6573939999999999,-0.001651,,-1.6510000000000004e-06,-1.651
68.574,0.660493,-0.001669,,-1.669e-06,-1.669
68.63,0.663076,-0.001593,,-1.593e-06,-1.5930000000000002
68.686,0.666003,-0.001497,,-1.4969999999999998e-06,-1.4969999999999999
68.742,0.668413,-0.001466,,-1.466e-06,-1.466
68.807,0.671856,-0.001352,,-1.352e-06,-1.352
68.863,0.674439,-0.001142,,-1.142e-06,-1.1420000000000001
68.92,0.677021,-0.000842,,-8.419999999999998e-07,-0.8420000000000001
68.976,0.679776,-0.000491,,-4.91e-07,-0.491
69.031,0.682531,-3.3e-05,,-3.3000000000000004e-08,-0.033
69.08800000000001,0.685113,0.000404,,4.0399999999999996e-07,0.40399999999999997
69.145,0.687523,0.000728,,7.280000000000002e-07,0.728
69.20100000000001,0.690106,0.00081,,8.1e-07,0.8099999999999999
69.257,0.69286,0.000745,,7.45e-07,0.745
69.314,0.695959,0.000549,,5.490000000000001e-07,0.5489999999999999
69.37,0.698886,0.000339,,3.39e-07,0.33899999999999997
69.426,0.701641,0.000139,,1.3900000000000001e-07,0.13899999999999998
69.487,0.7045680000000001,-9.9e-05,,-9.9e-08,-0.099
69.542,0.707322,-0.000291,,-2.9100000000000005e-07,-0.29100000000000004
69.598,0.710421,-0.000515,,-5.15e-07,-0.515
69.655,0.713176,-0.000667,,-6.669999999999999e-07,-0.6669999999999999
69.711,0.716275,-0.000722,,-7.22e-07,-0.722
69.766,0.7190300000000001,-0.000715,,-7.15e-07,-0.7150000000000001
69.825,0.721957,-0.000746,,-7.459999999999999e-07,-0.746
69.881,0.724711,-0.000798,,-7.979999999999999e-07,-0.7979999999999999
69.938,0.727638,-0.0008320000000000001,,-8.32e-07,-0.8320000000000001
69.994,0.7305649999999999,-0.0008349999999999999,,-8.349999999999998e-07,-0.835
70.04899999999999,0.7333189999999999,-0.000718,,-7.179999999999998e-07,-0.718
70.104,0.7359020000000001,-0.000598,,-5.979999999999999e-07,-0.598
70.15899999999999,0.738657,-0.000598,,-5.979999999999999e-07,-0.598
70.215,0.7414109999999999,-0.00056,,-5.599999999999999e-07,-0.5599999999999999
70.27199999999999,0.744166,-0.000443,,-4.43e-07,-0.44299999999999995
70.328,0.747093,-0.000267,,-2.67e-07,-0.267
70.384,0.749675,-0.000109,,-1.09e-07,-0.109
70.442,0.75243,8e-06,,7.999999999999999e-09,0.008
70.499,0.755185,9.4e-05,,9.400000000000001e-08,0.094
70.557,0.757939,0.000204,,2.0399999999999997e-07,0.204
70.612,0.7608659999999999,0.000353,,3.529999999999999e-07,0.353
70.667,0.7634489999999999,0.0006,,6e-07,0.6
70.726,0.766203,0.000776,,7.76e-07,0.7759999999999999
70.783,0.768786,0.000948,,9.48e-07,0.948
70.84,0.77154,0.001058,,1.058e-06,1.0579999999999998
70.899,0.774295,0.001213,,1.213e-06,1.213
70.955,0.7772220000000001,0.001324,,1.3240000000000002e-06,1.324
71.012,0.779976,0.001506,,1.5059999999999999e-06,1.506
71.068,0.782559,0.001744,,1.7440000000000004e-06,1.7440000000000002
71.124,0.785141,0.001936,,1.9359999999999998e-06,1.936
71.18,0.787724,0.00204,,2.0399999999999995e-06,2.04
71.236,0.790651,0.0021260000000000003,,2.1260000000000005e-06,2.1260000000000003
71.293,0.793405,0.002253,,2.2530000000000003e-06,2.253
71.348,0.795988,0.002467,,2.467e-06,2.467
71.405,0.798743,0.002639,,2.6389999999999996e-06,2.639
71.462,0.801497,0.002749,,2.749e-06,2.749
71.518,0.80408,0.00278,,2.78e-06,2.78
71.582,0.807179,0.0029760000000000003,,2.976000000000001e-06,2.9760000000000004
71.637,0.809761,0.002987,,2.987e-06,2.987
71.694,0.812688,0.003052,,3.0519999999999997e-06,3.052
71.751,0.815615,0.003166,,3.1660000000000003e-06,3.1660000000000004
71.808,0.818369,0.003314,,3.314e-06,3.3139999999999996
71.868,0.821124,0.0034,,3.4e-06,3.4
71.925,0.824051,0.003507,,3.507e-06,3.5069999999999997
71.982,0.8268059999999999,0.003547999999999999,,3.5479999999999993e-06,3.548
72.039,0.8293879999999999,0.003558,,3.558e-06,3.5580000000000003
72.094,0.8323149999999999,0.003555,,3.5549999999999994e-06,3.555
72.15,0.8348969999999999,0.003655,,3.655e-06,3.655
72.208,0.837996,0.003744,,3.7439999999999996e-06,3.744
72.264,0.8405790000000001,0.003827,,3.827e-06,3.827
72.322,0.843506,0.003865,,3.865e-06,3.865
72.378,0.84626,0.003834,,3.834e-06,3.8339999999999996
72.434,0.848843,0.003837,,3.837e-06,3.837
72.48899999999999,0.85177,0.003937,,3.937e-06,3.937
72.546,0.854352,0.00404,,4.04e-06,4.04
72.601,0.8574510000000001,0.004058,,4.058e-06,4.058
72.65899999999999,0.8598610000000001,0.004054,,4.0540000000000005e-06,4.053999999999999
72.71600000000001,0.8629600000000001,0.00404,,4.04e-06,4.04
72.786,0.866059,0.004157,,4.157e-06,4.157
72.84899999999999,0.869331,0.004178,,4.1780000000000005e-06,4.178
72.906,0.8724299999999999,0.004268,,4.2680000000000005e-06,4.268
72.96300000000001,0.8750120000000001,0.004299,,4.299e-06,4.299
73.027,0.878283,0.00433,,4.33e-06,4.33
73.082,0.8810379999999999,0.004361,,4.361e-06,4.3610000000000015
73.138,0.883793,0.00433,,4.33e-06,4.33
73.195,0.886719,0.004319,,4.319e-06,4.319
73.251,0.889474,0.004381,,4.381e-06,4.381
73.307,0.8901629999999999,0.003655,,3.655e-06,3.655
73.363,0.8886129999999999,0.002315,,2.315e-06,2.315
73.42,0.886719,0.001878,,1.878e-06,1.878
73.476,0.884998,0.001561,,1.561e-06,1.561
73.532,0.88276,0.001365,,1.365e-06,1.3650000000000002
73.587,0.8806940000000001,0.001272,,1.272e-06,1.272
73.64399999999999,0.8784549999999999,0.001134,,1.134e-06,1.134
73.70100000000001,0.876217,0.000948,,9.48e-07,0.948
73.758,0.873807,0.000752,,7.520000000000001e-07,0.752
73.814,0.871569,0.000594,,5.939999999999999e-07,0.594
73.87100000000001,0.868986,0.000518,,5.180000000000001e-07,0.518
73.92699999999999,0.866576,0.0004730000000000001,,4.730000000000001e-07,0.473
73.984,0.863993,0.000397,,3.97e-07,0.397
74.039,0.861411,0.000229,,2.2899999999999997e-07,0.22899999999999998
74.095,0.859173,8e-05,,8e-08,0.08
74.152,0.85659,1.5e-05,,1.5e-08,0.015
74.209,0.854008,-1.2e-05,,-1.2e-08,-0.012
74.265,0.851253,-4e-05,,-4e-08,-0.04
74.322,0.848499,-0.000143,,-1.43e-07,-0.14300000000000002
74.37899999999999,0.845916,-0.000281,,-2.81e-07,-0.281
74.439,0.843161,-0.000371,,-3.71e-07,-0.371
74.495,0.8405790000000001,-0.0004980000000000001,,-4.979999999999999e-07,-0.4980000000000001
74.551,0.837824,-0.000539,,-5.389999999999999e-07,-0.539
74.607,0.835414,-0.000539,,-5.389999999999999e-07,-0.539
74.661,0.832659,-0.000653,,-6.529999999999999e-07,-0.653
74.71600000000001,0.8299049999999999,-0.0008150000000000001,,-8.15e-07,-0.8150000000000001
74.771,0.8273219999999999,-0.0008529999999999999,,-8.529999999999998e-07,-0.8529999999999999
74.82600000000001,0.8249120000000001,-0.0008529999999999999,,-8.529999999999998e-07,-0.8529999999999999
74.884,0.8219850000000001,-0.000949,,-9.49e-07,-0.9490000000000001
74.942,0.8192299999999999,-0.00108,,-1.08e-06,-1.08
75.0,0.816476,-0.001228,,-1.228e-06,-1.228
75.057,0.813721,-0.00139,,-1.39e-06,-1.39
75.11399999999999,0.811139,-0.001507,,-1.507e-06,-1.507
75.169,0.808556,-0.001534,,-1.534e-06,-1.534
75.22399999999999,0.805801,-0.001627,,-1.6269999999999998e-06,-1.6269999999999998
75.281,0.802875,-0.001813,,-1.813e-06,-1.8130000000000002
75.33800000000001,0.800292,-0.002013,,-2.013e-06,-2.013
