time,potential,current1_mA,coll_current,current1,current1_muA
1569.4360000000001,0.05980700000000001,-0.002388,,-2.3880000000000003e-06,-2.388
1569.5,0.062217,-0.001669,,-1.669e-06,-1.669
1569.5629999999999,0.064627,-0.001173,,-1.173e-06,-1.173
1569.626,0.06721,-0.000808,,-8.079999999999999e-07,-0.8079999999999999
1569.6889999999999,0.06979199999999999,-0.000519,,-5.19e-07,-0.519
1569.75,0.072375,-0.000312,,-3.12e-07,-0.312
1569.8129999999999,0.075129,-0.000161,,-1.6100000000000003e-07,-0.161
1569.875,0.07822799999999999,-6.1e-05,,-6.099999999999999e-08,-0.061
1569.9379999999999,0.081499,-3.3e-05,,-3.3000000000000004e-08,-0.033
1569.999,0.084598,-4.7e-05,,-4.7000000000000004e-08,-0.047
1570.0620000000001,0.087697,-0.000112,,-1.12e-07,-0.11200000000000003
1570.125,0.090796,-0.000226,,-2.26e-07,-0.226
1570.1870000000001,0.093895,-0.000312,,-3.12e-07,-0.312
1570.2579999999998,0.097511,-0.00027400000000000005,,-2.7400000000000004e-07,-0.27399999999999997
1570.3220000000001,0.100954,-0.000408,,-4.0799999999999995e-07,-0.408
1570.385,0.104225,-0.00055,,-5.5e-07,-0.55
1570.4489999999998,0.107324,-0.0006219999999999999,,-6.219999999999999e-07,-0.6219999999999999
1570.509,0.110251,-0.000701,,-7.009999999999999e-07,-0.7010000000000001
1570.569,0.11335,-0.0007700000000000001,,-7.7e-07,-0.77
1570.6329999999998,0.116621,-0.000784,,-7.839999999999998e-07,-0.784
1570.6960000000001,0.120065,-0.0008150000000000001,,-8.15e-07,-0.8150000000000001
1570.7579999999998,0.123336,-0.000877,,-8.769999999999998e-07,-0.877
1570.826,0.126607,-0.00107,,-1.07e-06,-1.07
1570.89,0.13005,-0.001111,,-1.111e-06,-1.111
1570.9520000000002,0.133149,-0.001114,,-1.114e-06,-1.114
1571.015,0.13642,-0.001132,,-1.1320000000000001e-06,-1.1320000000000001
1571.075,0.139347,-0.001187,,-1.1869999999999998e-06,-1.1869999999999998
1571.138,0.14279,-0.0012380000000000002,,-1.2380000000000005e-06,-1.2380000000000002
1571.2020000000002,0.146062,-0.001348,,-1.348e-06,-1.348
1571.266,0.149333,-0.001455,,-1.455e-06,-1.455
1571.332,0.15243199999999998,-0.001431,,-1.431e-06,-1.431
1571.394,0.155703,-0.001424,,-1.4239999999999996e-06,-1.4240000000000002
1571.4560000000001,0.158802,-0.001448,,-1.4480000000000004e-06,-1.4480000000000002
1571.519,0.162073,-0.001507,,-1.507e-06,-1.507
1571.58,0.165,-0.001552,,-1.552e-06,-1.5519999999999998
1571.644,0.168271,-0.001651,,-1.6510000000000004e-06,-1.651
1571.7079999999999,0.17137,-0.001713,,-1.7130000000000002e-06,-1.713
1571.7720000000002,0.17464100000000002,-0.001655,,-1.655e-06,-1.655
1571.8339999999998,0.17774,-0.001651,,-1.6510000000000004e-06,-1.651
1571.8970000000002,0.181183,-0.0016649999999999998,,-1.6649999999999995e-06,-1.6649999999999998
1571.9589999999998,0.18411,-0.00172,,-1.72e-06,-1.72
1572.0220000000002,0.187209,-0.001803,,-1.803e-06,-1.803
1572.0829999999999,0.190136,-0.001841,,-1.841e-06,-1.841
1572.1470000000002,0.193579,-0.001893,,-1.8930000000000001e-06,-1.893
1572.21,0.19685,-0.001858,,-1.858e-06,-1.858
1572.273,0.199949,-0.0018170000000000005,,-1.8170000000000003e-06,-1.817
1572.339,0.203221,-0.001848,,-1.848e-06,-1.848
1572.402,0.206147,-0.00192,,-1.92e-06,-1.92
1572.465,0.209074,-0.001968,,-1.968e-06,-1.968
1572.529,0.21269,-0.001941,,-1.941e-06,-1.9409999999999998
1572.5910000000001,0.215617,-0.001903,,-1.903e-06,-1.903
1572.6570000000002,0.218888,-0.001865,,-1.865e-06,-1.865
1572.72,0.221987,-0.00192,,-1.92e-06,-1.92
1572.781,0.224914,-0.001958,,-1.958e-06,-1.958
1572.844,0.228185,-0.001996,,-1.996e-06,-1.996
1572.9070000000002,0.231284,-0.0019920000000000003,,-1.9919999999999997e-06,-1.992
1572.97,0.234555,-0.001937,,-1.9370000000000003e-06,-1.9369999999999998
1573.035,0.237826,-0.001862,,-1.862e-06,-1.8619999999999999
1573.098,0.240753,-0.001882,,-1.882e-06,-1.882
1573.158,0.243852,-0.001893,,-1.8930000000000001e-06,-1.893
1573.2220000000002,0.24695100000000006,-0.001972,,-1.972e-06,-1.972
1573.285,0.25005,-0.002016,,-2.016e-06,-2.016
1573.349,0.253493,-0.001996,,-1.996e-06,-1.996
1573.41,0.25642,-0.001982,,-1.982e-06,-1.982
1573.471,0.259519,-0.001968,,-1.968e-06,-1.968
1573.535,0.262618,-0.001934,,-1.934e-06,-1.9340000000000002
1573.598,0.265545,-0.001958,,-1.958e-06,-1.958
1573.665,0.268816,-0.002072,,-2.072e-06,-2.072
1573.729,0.27225900000000003,-0.002037,,-2.0369999999999997e-06,-2.0370000000000004
1573.7910000000002,0.275358,-0.001996,,-1.996e-06,-1.996
1573.8529999999998,0.278457,-0.001955,,-1.9550000000000003e-06,-1.955
1573.915,0.281556,-0.001948,,-1.948e-06,-1.948
1573.977,0.284483,-0.001958,,-1.958e-06,-1.958
1574.04,0.28741,-0.00201,,-2.01e-06,-2.01
1574.1029999999998,0.290337,-0.0020510000000000003,,-2.0510000000000004e-06,-2.051
1574.164,0.29343600000000003,-0.002061,,-2.061e-06,-2.061
1574.227,0.296707,-0.002044,,-2.0440000000000003e-06,-2.044
1574.2910000000002,0.299978,-0.001968,,-1.968e-06,-1.968
1574.3529999999998,0.303249,-0.00192,,-1.92e-06,-1.92
1574.415,0.306348,-0.001896,,-1.896e-06,-1.896
1574.477,0.309103,-0.001882,,-1.882e-06,-1.882
1574.54,0.312202,-0.001927,,-1.927e-06,-1.927
1574.6029999999998,0.315128,-0.001965,,-1.965e-06,-1.965
1574.664,0.3184,-0.001961,,-1.961e-06,-1.9609999999999999
1574.726,0.321499,-0.0019510000000000005,,-1.9510000000000005e-06,-1.9510000000000003
1574.79,0.324598,-0.001889,,-1.889e-06,-1.889
1574.8529999999998,0.327869,-0.0018,,-1.8000000000000001e-06,-1.8
1574.92,0.330968,-0.001803,,-1.803e-06,-1.803
1574.9879999999998,0.334411,-0.001851,,-1.851e-06,-1.851
1575.0529999999999,0.33768200000000004,-0.001748,,-1.748e-06,-1.7480000000000002
1575.116,0.340781,-0.001689,,-1.689e-06,-1.689
1575.1870000000001,0.344052,-0.0018,,-1.8000000000000001e-06,-1.8
1575.25,0.347323,-0.001731,,-1.7309999999999996e-06,-1.731
1575.3129999999999,0.350422,-0.001638,,-1.6379999999999996e-06,-1.6380000000000001
1575.378,0.35352100000000003,-0.001583,,-1.5830000000000001e-06,-1.5830000000000002
1575.441,0.35662,-0.001596,,-1.5959999999999998e-06,-1.5959999999999999
1575.503,0.359547,-0.0016239999999999998,,-1.6239999999999996e-06,-1.624
1575.568,0.362818,-0.0016239999999999998,,-1.6239999999999996e-06,-1.624
1575.631,0.365917,-0.001559,,-1.559e-06,-1.5590000000000002
1575.693,0.369188,-0.00149,,-1.49e-06,-1.49
1575.755,0.372115,-0.001431,,-1.431e-06,-1.431
1575.817,0.375214,-0.001404,,-1.4039999999999998e-06,-1.4040000000000001
1575.88,0.378313,-0.001407,,-1.4069999999999998e-06,-1.4069999999999998
1575.9460000000001,0.381412,-0.00149,,-1.49e-06,-1.49
1576.009,0.384856,-0.001455,,-1.455e-06,-1.455
1576.0710000000001,0.38761,-0.001386,,-1.386e-06,-1.386
1576.135,0.390709,-0.001283,,-1.283e-06,-1.283
1576.1979999999999,0.39398,-0.001228,,-1.228e-06,-1.228
1576.2620000000002,0.397079,-0.001231,,-1.2310000000000002e-06,-1.2309999999999999
1576.326,0.400178,-0.001256,,-1.256e-06,-1.256
1576.388,0.403105,-0.0012109999999999998,,-1.211e-06,-1.211
1576.4489999999998,0.406376,-0.001149,,-1.149e-06,-1.149
1576.515,0.409475,-0.000983,,-9.83e-07,-0.983
1576.578,0.412746,-0.0008869999999999998,,-8.869999999999998e-07,-0.8869999999999999
1576.64,0.415845,-0.0008289999999999999,,-8.289999999999998e-07,-0.8289999999999998
1576.701,0.418772,-0.000763,,-7.629999999999999e-07,-0.763
1576.763,0.421699,-0.000705,,-7.05e-07,-0.705
1576.829,0.424798,-0.0006799999999999999,,-6.8e-07,-0.6799999999999999
1576.8929999999998,0.428069,-0.000512,,-5.119999999999999e-07,-0.512
1576.9560000000001,0.430824,-0.000343,,-3.43e-07,-0.343
1577.02,0.434267,-0.000205,,-2.05e-07,-0.205
1577.0839999999998,0.437366,-0.000119,,-1.1900000000000001e-07,-0.11900000000000001
1577.146,0.4402930000000001,-1.2e-05,,-1.2e-08,-0.012
1577.207,0.443392,0.000115,,1.1499999999999997e-07,0.115
1577.271,0.446147,0.00027,,2.7e-07,0.27
1577.3339999999998,0.449073,0.00047,,4.700000000000001e-07,0.47
1577.395,0.452,0.000656,,6.559999999999999e-07,0.6559999999999999
1577.457,0.455099,0.00081,,8.1e-07,0.8099999999999999
1577.521,0.45837,0.000955,,9.550000000000002e-07,0.955
1577.585,0.461642,0.00101,,1.01e-06,1.01
1577.6470000000002,0.464396,0.001093,,1.093e-06,1.093
1577.7079999999999,0.467495,0.001182,,1.182e-06,1.1820000000000002
1577.779,0.470766,0.001379,,1.379e-06,1.379
1577.842,0.474038,0.001413,,1.413e-06,1.413
1577.906,0.477137,0.001382,,1.3819999999999999e-06,1.382
1577.971,0.480236,0.001399,,1.399e-06,1.399
1578.0339999999999,0.483162,0.001437,,1.437e-06,1.4369999999999998
1578.0970000000002,0.486261,0.001478,,1.478e-06,1.4780000000000002
1578.161,0.489705,0.0014609999999999998,,1.461e-06,1.461
1578.221,0.492804,0.001417,,1.4170000000000004e-06,1.4169999999999998
1578.2820000000002,0.49573,0.001375,,1.375e-06,1.375
1578.344,0.499174,0.001299,,1.299e-06,1.2990000000000002
1578.4070000000002,0.502101,0.00121,,1.2099999999999998e-06,1.21
1578.469,0.505372,0.001144,,1.144e-06,1.144
1578.535,0.508299,0.001172,,1.1720000000000002e-06,1.1720000000000002
1578.601,0.511742,0.0011619999999999998,,1.1619999999999998e-06,1.162
1578.664,0.514841,0.001086,,1.086e-06,1.086
1578.7279999999998,0.518284,0.00099,,9.9e-07,0.99
1578.79,0.521211,0.000959,,9.59e-07,0.9590000000000001
1578.851,0.5239659999999999,0.000948,,9.48e-07,0.948
1578.914,0.527237,0.000972,,9.720000000000002e-07,0.972
1578.977,0.5303359999999999,0.00099,,9.9e-07,0.99
1579.04,0.533779,0.000993,,9.93e-07,0.993
1579.104,0.53705,0.000938,,9.38e-07,0.938
1579.1760000000002,0.540666,0.000938,,9.38e-07,0.938
1579.247,0.5441090000000001,0.000859,,8.590000000000001e-07,0.8590000000000001
1579.308,0.547208,0.000852,,8.520000000000001e-07,0.852
1579.369,0.550307,0.0008449999999999999,,8.45e-07,0.845
1579.432,0.553234,0.000859,,8.590000000000001e-07,0.8590000000000001
1579.494,0.556333,0.000914,,9.14e-07,0.914
1579.558,0.559604,0.000969,,9.69e-07,0.9690000000000001
1579.622,0.562875,0.000969,,9.69e-07,0.9690000000000001
1579.684,0.565974,0.000948,,9.48e-07,0.948
1579.7479999999998,0.5694170000000001,0.0008900000000000002,,8.900000000000002e-07,0.89
1579.809,0.572172,0.0008900000000000002,,8.900000000000002e-07,0.89
1579.876,0.575099,0.000962,,9.62e-07,0.9620000000000001
1579.94,0.5787140000000001,0.001021,,1.0209999999999998e-06,1.021
1580.0020000000002,0.581641,0.001014,,1.0140000000000002e-06,1.0140000000000002
1580.066,0.5850850000000001,0.000952,,9.520000000000001e-07,0.9520000000000001
1580.129,0.588011,0.000917,,9.170000000000001e-07,0.917
1580.192,0.590938,0.000928,,9.28e-07,0.928
1580.257,0.594209,0.001021,,1.0209999999999998e-06,1.021
1580.32,0.597653,0.001048,,1.0480000000000002e-06,1.048
1580.381,0.60058,0.001048,,1.0480000000000002e-06,1.048
1580.445,0.603851,0.000996,,9.959999999999999e-07,0.996
1580.5079999999998,0.60695,0.000945,,9.449999999999998e-07,0.9449999999999998
1580.5710000000001,0.609876,0.000934,,9.340000000000001e-07,0.934
1580.636,0.6131479999999999,0.000993,,9.93e-07,0.993
1580.6989999999998,0.6164189999999999,0.001027,,1.027e-06,1.0270000000000001
1580.7620000000002,0.619518,0.000993,,9.93e-07,0.993
1580.825,0.622789,0.000934,,9.340000000000001e-07,0.934
1580.885,0.625888,0.000914,,9.14e-07,0.914
1580.9479999999999,0.628815,0.000828,,8.28e-07,0.828
1581.011,0.6319140000000001,0.000793,,7.93e-07,0.7929999999999999
1581.0739999999998,0.634841,0.00081,,8.1e-07,0.8099999999999999
1581.136,0.637767,0.000817,,8.170000000000001e-07,0.8170000000000001
1581.1979999999999,0.641039,0.0008349999999999999,,8.349999999999998e-07,0.835
1581.261,0.64431,0.0008380000000000001,,8.380000000000002e-07,0.8380000000000001
1581.3239999999998,0.647753,0.0008,,8.000000000000002e-07,0.8
1581.384,0.65068,0.000776,,7.76e-07,0.7759999999999999
1581.4470000000001,0.6539510000000001,0.000711,,7.110000000000002e-07,0.7110000000000001
1581.51,0.65705,0.0006519999999999999,,6.520000000000001e-07,0.6519999999999999
1581.5710000000001,0.659977,0.0006349999999999999,,6.35e-07,0.6349999999999999
1581.634,0.662904,0.0006450000000000001,,6.450000000000001e-07,0.645
1581.6979999999999,0.666175,0.000724,,7.240000000000002e-07,0.7240000000000001
1581.7620000000002,0.669446,0.000735,,7.35e-07,0.735
1581.825,0.672545,0.000728,,7.280000000000002e-07,0.728
1581.886,0.675816,0.0008,,8.000000000000002e-07,0.8
1581.9479999999999,0.678743,0.000948,,9.48e-07,0.948
1582.011,0.6814979999999999,0.001186,,1.186e-06,1.186
1582.075,0.684424,0.001503,,1.503e-06,1.5030000000000001
1582.146,0.6882119999999999,0.0017920000000000004,,1.7920000000000004e-06,1.7920000000000005
1582.2079999999999,0.690967,0.001899,,1.8990000000000002e-06,1.899
1582.271,0.693893,0.001892,,1.8920000000000005e-06,1.892
1582.335,0.6969920000000001,0.00183,,1.83e-06,1.83
1582.3970000000002,0.699919,0.001675,,1.675e-06,1.675
1582.4579999999999,0.703018,0.001516,,1.516e-06,1.516
1582.521,0.7062890000000001,0.001361,,1.361e-06,1.361
1582.585,0.709905,0.001169,,1.1690000000000002e-06,1.1689999999999998
1582.648,0.712832,0.000983,,9.83e-07,0.983
1582.711,0.7161029999999999,0.0008550000000000001,,8.550000000000002e-07,0.8550000000000001
1582.774,0.7190300000000001,0.000797,,7.970000000000001e-07,0.7969999999999999
1582.8370000000002,0.722301,0.000793,,7.93e-07,0.7929999999999999
1582.898,0.7254,0.000769,,7.690000000000002e-07,0.769
1582.9579999999999,0.728671,0.000749,,7.489999999999998e-07,0.7490000000000001
1583.0220000000002,0.73177,0.000749,,7.489999999999998e-07,0.7490000000000001
1583.0839999999998,0.734869,0.000711,,7.110000000000002e-07,0.7110000000000001
1583.149,0.7379680000000001,0.000642,,6.420000000000001e-07,0.642
1583.211,0.741239,0.000659,,6.590000000000001e-07,0.6589999999999999
1583.275,0.744338,0.000735,,7.35e-07,0.735
1583.338,0.747437,0.000831,,8.310000000000002e-07,0.8310000000000001
1583.4,0.750708,0.000907,,9.07e-07,0.907
1583.463,0.753635,0.000948,,9.48e-07,0.948
1583.527,0.756734,0.000928,,9.28e-07,0.928
1583.589,0.759833,0.000962,,9.62e-07,0.9620000000000001
1583.654,0.763104,0.001062,,1.062e-06,1.062
1583.7179999999998,0.766031,0.001213,,1.213e-06,1.213
1583.78,0.769302,0.001306,,1.3059999999999999e-06,1.306
1583.844,0.772401,0.001358,,1.3580000000000002e-06,1.358
1583.911,0.7755,0.00133,,1.33e-06,1.33
1583.983,0.779116,0.001527,,1.527e-06,1.527
1584.047,0.782215,0.001527,,1.527e-06,1.527
1584.111,0.785141,0.0015539999999999998,,1.554e-06,1.5539999999999998
1584.1760000000002,0.7885850000000001,0.001709,,1.709e-06,1.709
1584.237,0.791339,0.001771,,1.7709999999999999e-06,1.771
1584.3010000000002,0.794611,0.001857,,1.857e-06,1.857
1584.364,0.79771,0.001854,,1.854e-06,1.854
1584.4289999999999,0.800809,0.001816,,1.816e-06,1.816
1584.4920000000002,0.803908,0.00185,,1.85e-06,1.85
1584.555,0.806834,0.00193,,1.93e-06,1.93
1584.6170000000002,0.810106,0.0020050000000000003,,2.0050000000000003e-06,2.0050000000000003
1584.68,0.813204,0.002057,,2.0570000000000004e-06,2.0570000000000004
1584.743,0.816303,0.00205,,2.0500000000000003e-06,2.0500000000000003
1584.805,0.819575,0.002023,,2.023e-06,2.023
1584.8670000000002,0.8223290000000001,0.002002,,2.002e-06,2.002
1584.9279999999999,0.825428,0.001998,,1.998e-06,1.998
1584.991,0.828527,0.001988,,1.9880000000000003e-06,1.988
1585.0520000000001,0.831626,0.002016,,2.016e-06,2.016
1585.1170000000002,0.834725,0.002119,,2.1190000000000004e-06,2.119
1585.18,0.837996,0.002146,,2.146e-06,2.146
1585.2420000000002,0.841095,0.002146,,2.146e-06,2.146
1585.3029999999999,0.8440219999999999,0.002133,,2.133e-06,2.133
1585.364,0.8471209999999999,0.0021260000000000003,,2.1260000000000005e-06,2.1260000000000003
1585.4260000000002,0.8500479999999999,0.002095,,2.0950000000000003e-06,2.095
1585.489,0.853147,0.00205,,2.0500000000000003e-06,2.0500000000000003
1585.5529999999999,0.856418,0.002078,,2.0780000000000003e-06,2.0780000000000003
1585.6170000000002,0.859517,0.00216,,2.16e-06,2.16
1585.68,0.8626159999999999,0.002202,,2.202e-06,2.202
1585.743,0.865715,0.002195,,2.195e-06,2.195
1585.8039999999999,0.868814,0.002177,,2.177e-06,2.177
1585.8670000000002,0.8719129999999999,0.002143,,2.143e-06,2.1430000000000002
1585.9260000000002,0.8750120000000001,0.00216,,2.16e-06,2.16
1585.99,0.8781110000000001,0.00214,,2.14e-06,2.14
1586.0520000000001,0.88121,0.002171,,2.171e-06,2.1710000000000003
1586.115,0.884309,0.002243,,2.243e-06,2.2430000000000003
1586.1789999999999,0.887408,0.002315,,2.315e-06,2.315
1586.243,0.8905069999999999,0.002326,,2.326e-06,2.326
1586.305,0.891884,0.001613,,1.6129999999999996e-06,1.6129999999999998
1586.3670000000002,0.8901629999999999,0.000235,,2.3500000000000005e-07,0.235
1586.4279999999999,0.8880969999999999,-5e-05,,-5e-08,-0.05
1586.489,0.8858590000000001,-0.000209,,-2.09e-07,-0.209
1586.555,0.8836200000000001,-0.000298,,-2.98e-07,-0.298
1586.619,0.880866,-0.000326,,-3.2600000000000003e-07,-0.326
1586.682,0.878283,-0.0004190000000000001,,-4.19e-07,-0.419
1586.7479999999998,0.8755290000000001,-0.000605,,-6.049999999999999e-07,-0.605
1586.81,0.8729459999999999,-0.000677,,-6.769999999999999e-07,-0.6769999999999999
1586.872,0.8701909999999999,-0.000722,,-7.22e-07,-0.722
1586.9360000000001,0.8674370000000001,-0.000698,,-6.979999999999999e-07,-0.6980000000000001
1586.999,0.86451,-0.000711,,-7.110000000000002e-07,-0.7110000000000001
1587.0620000000001,0.861583,-0.000749,,-7.489999999999998e-07,-0.7490000000000001
1587.124,0.858828,-0.000825,,-8.25e-07,-0.825
1587.19,0.855902,-0.000946,,-9.46e-07,-0.946
1587.254,0.8526309999999999,-0.000959,,-9.59e-07,-0.9590000000000001
1587.319,0.849532,-0.000897,,-8.97e-07,-0.897
1587.389,0.84626,-0.001045,,-1.045e-06,-1.045
1587.45,0.843506,-0.00108,,-1.08e-06,-1.08
1587.515,0.840407,-0.001066,,-1.066e-06,-1.0659999999999998
1587.5770000000002,0.8371360000000001,-0.001039,,-1.0390000000000001e-06,-1.0390000000000001
1587.641,0.8343809999999999,-0.001039,,-1.0390000000000001e-06,-1.0390000000000001
1587.704,0.831282,-0.001097,,-1.097e-06,-1.0970000000000002
1587.767,0.828183,-0.001197,,-1.197e-06,-1.197
1587.83,0.825256,-0.001269,,-1.269e-06,-1.2690000000000001
1587.891,0.8219850000000001,-0.0013,,-1.2999999999999998e-06,-1.3
1587.9520000000002,0.819058,-0.0013310000000000002,,-1.331e-06,-1.3310000000000002
1588.016,0.815959,-0.001321,,-1.321e-06,-1.3210000000000002
1588.078,0.813032,-0.0013039999999999998,,-1.3040000000000001e-06,-1.3039999999999998
1588.142,0.810106,-0.001335,,-1.335e-06,-1.335
1588.2020000000002,0.8070069999999999,-0.00139,,-1.39e-06,-1.39
1588.266,0.803908,-0.001503,,-1.503e-06,-1.5030000000000001
1588.329,0.800809,-0.001614,,-1.6140000000000001e-06,-1.614
1588.389,0.798054,-0.001679,,-1.6790000000000001e-06,-1.6789999999999998
1588.4489999999998,0.795127,-0.001748,,-1.748e-06,-1.7480000000000002
1588.511,0.7922,-0.001837,,-1.837e-06,-1.837
1588.575,0.788929,-0.001875,,-1.875e-06,-1.875
1588.638,0.7860020000000001,-0.001903,,-1.903e-06,-1.903
1588.6979999999999,0.783075,-0.001972,,-1.972e-06,-1.972
1588.763,0.7798039999999999,-0.002054,,-2.054e-06,-2.0540000000000003
1588.825,0.77705,-0.002171,,-2.171e-06,-2.1710000000000003
1588.891,0.773606,-0.0023710000000000003,,-2.3710000000000003e-06,-2.3710000000000004
1588.953,0.7708520000000001,-0.002461,,-2.461e-06,-2.4610000000000003
1589.016,0.767753,-0.0025050000000000003,,-2.505e-06,-2.5050000000000003
1589.079,0.764654,-0.002547,,-2.547e-06,-2.547
1589.141,0.761727,-0.002616,,-2.616e-06,-2.616
1589.203,0.758972,-0.002712,,-2.712e-06,-2.7119999999999997
1589.267,0.7558729999999999,-0.00287,,-2.87e-06,-2.87
1589.33,0.752602,-0.003005,,-3.005e-06,-3.005
1589.392,0.749847,-0.003084,,-3.0839999999999996e-06,-3.0839999999999996
1589.453,0.7469210000000001,-0.00316,,-3.16e-06,-3.16
1589.515,0.743822,-0.003211,,-3.2110000000000003e-06,-3.2110000000000003
1589.5770000000002,0.7407229999999999,-0.003242,,-3.242e-06,-3.242
1589.64,0.7379680000000001,-0.00328,,-3.28e-06,-3.28
1589.7020000000002,0.734869,-0.003346,,-3.3460000000000002e-06,-3.346
1589.765,0.731942,-0.0034560000000000003,,-3.456000000000001e-06,-3.4560000000000004
1589.828,0.729015,-0.003597,,-3.597e-06,-3.597
1589.89,0.725916,-0.003717,,-3.7169999999999997e-06,-3.717
1589.951,0.722817,-0.003828,,-3.828e-06,-3.828
1590.014,0.719891,-0.003924,,-3.924e-06,-3.924
1590.0770000000002,0.716964,-0.003996,,-3.996e-06,-3.996
