time,potential,current1_mA,coll_current,current1,current1_muA
451.16900000000004,0.872602,0.004454,,4.454e-06,4.454
451.227,0.8753559999999999,0.004495,,4.495e-06,4.495
451.285,0.878283,0.004515,,4.515e-06,4.515
451.342,0.8810379999999999,0.004497999999999999,,4.497999999999998e-06,4.497999999999998
451.401,0.883965,0.004536,,4.536e-06,4.5360000000000005
451.46,0.886892,0.004564,,4.5640000000000015e-06,4.564
451.52,0.8901629999999999,0.004636,,4.636e-06,4.636
451.577,0.889818,0.0032450000000000005,,3.2450000000000007e-06,3.245000000000001
451.635,0.8880969999999999,0.00225,,2.25e-06,2.25
451.69199999999995,0.886375,0.001974,,1.974e-06,1.974
451.749,0.8841370000000001,0.0017640000000000004,,1.7640000000000004e-06,1.7640000000000002
451.80800000000005,0.881899,0.001558,,1.5580000000000002e-06,1.5579999999999998
451.87,0.879833,0.001334,,1.3339999999999998e-06,1.334
451.92900000000003,0.8774219999999999,0.001172,,1.1720000000000002e-06,1.1720000000000002
451.98800000000006,0.87484,0.001021,,1.0209999999999998e-06,1.021
452.045,0.8724299999999999,0.000859,,8.590000000000001e-07,0.8590000000000001
452.10400000000004,0.8698469999999999,0.000704,,7.040000000000001e-07,0.7040000000000001
452.162,0.867609,0.000538,,5.38e-07,0.5379999999999999
452.22,0.8650260000000001,0.000394,,3.94e-07,0.394
452.282,0.8621,0.000304,,3.0399999999999997e-07,0.304
452.344,0.859345,0.000246,,2.46e-07,0.246
452.404,0.85659,0.000146,,1.4599999999999998e-07,0.146
452.462,0.8541799999999999,1.2e-05,,1.2e-08,0.012
452.52099999999996,0.851425,-9.9e-05,,-9.9e-08,-0.099
452.57800000000003,0.848671,-0.000205,,-2.05e-07,-0.205
452.63800000000003,0.845916,-0.000291,,-2.9100000000000005e-07,-0.29100000000000004
452.69800000000004,0.842989,-0.000377,,-3.7700000000000005e-07,-0.377
452.76099999999997,0.8400620000000001,-0.000443,,-4.43e-07,-0.44299999999999995
452.83,0.836791,-0.000433,,-4.3299999999999997e-07,-0.433
452.91900000000004,0.832831,-0.000663,,-6.629999999999999e-07,-0.6629999999999999
453.01199999999994,0.828183,-0.000736,,-7.359999999999999e-07,-0.736
453.082,0.824567,-0.000891,,-8.909999999999999e-07,-0.8909999999999999
453.152,0.821641,-0.000939,,-9.39e-07,-0.939
453.216,0.818369,-0.001118,,-1.118e-06,-1.1179999999999999
453.282,0.815098,-0.001214,,-1.2140000000000002e-06,-1.214
453.38800000000003,0.8106220000000001,-0.001431,,-1.431e-06,-1.431
453.454,0.807179,-0.00149,,-1.49e-06,-1.49
453.52099999999996,0.803908,-0.0017,,-1.6999999999999996e-06,-1.7
453.588,0.800809,-0.001741,,-1.741e-06,-1.741
453.65,0.79771,-0.001886,,-1.886e-06,-1.886
453.717,0.794611,-0.002168,,-2.1680000000000002e-06,-2.168
453.786,0.791339,-0.002258,,-2.258e-06,-2.258
453.849,0.7882399999999999,-0.002402,,-2.402e-06,-2.4019999999999997
453.91,0.785486,-0.002578,,-2.578e-06,-2.5780000000000003
453.972,0.7827310000000001,-0.002771,,-2.771e-06,-2.7710000000000004
454.037,0.779632,-0.003049,,-3.048999999999999e-06,-3.0489999999999995
454.11199999999997,0.776017,-0.003153,,-3.153e-06,-3.153
454.17699999999996,0.772745,-0.0034560000000000003,,-3.456000000000001e-06,-3.4560000000000004
454.241,0.7698189999999999,-0.003621,,-3.621e-06,-3.6210000000000004
454.29900000000004,0.7670640000000001,-0.003797,,-3.797e-06,-3.7969999999999997
454.358,0.764482,-0.003954999999999999,,-3.9549999999999986e-06,-3.9549999999999987
454.415,0.761727,-0.004062,,-4.0619999999999985e-06,-4.0619999999999985
454.478,0.7588,-0.004244,,-4.244e-06,-4.244
454.539,0.7557010000000001,-0.004399,,-4.399e-06,-4.399
454.598,0.753119,-0.004536999999999999,,-4.536999999999998e-06,-4.536999999999999
454.661,0.75002,-0.004609,,-4.608999999999999e-06,-4.609
454.723,0.747093,-0.004671,,-4.671e-06,-4.6709999999999985
454.782,0.744682,-0.004874,,-4.873999999999999e-06,-4.874
454.844,0.741583,-0.00506,,-5.0600000000000015e-06,-5.0600000000000005
454.906,0.738484,-0.0051530000000000005,,-5.1530000000000005e-06,-5.1530000000000005
454.964,0.7359020000000001,-0.005315,,-5.315e-06,-5.315
455.02,0.733147,-0.005494,,-5.4939999999999986e-06,-5.494
455.07800000000003,0.7303930000000001,-0.005618,,-5.6179999999999986e-06,-5.6179999999999986
455.13599999999997,0.7278100000000001,-0.005732,,-5.732e-06,-5.732
455.19599999999997,0.7248829999999999,-0.005894,,-5.894e-06,-5.894
455.269,0.721612,-0.005997,,-5.997e-06,-5.997000000000001
455.346,0.7176520000000001,-0.006259000000000001,,-6.259000000000001e-06,-6.2589999999999995
455.411,0.714726,-0.006417,,-6.4170000000000006e-06,-6.417000000000001
455.481,0.711454,-0.006775,,-6.775e-06,-6.775
455.543,0.7085279999999999,-0.007002,,-7.001999999999998e-06,-7.002000000000001
455.60400000000004,0.705601,-0.007229999999999999,,-7.2299999999999985e-06,-7.229999999999999
455.663,0.703018,-0.007522,,-7.522e-06,-7.522
455.725,0.700264,-0.007825,,-7.825e-06,-7.825
455.785,0.6971649999999999,-0.008190000000000001,,-8.190000000000001e-06,-8.190000000000001
455.85,0.6944100000000001,-0.008555,,-8.555e-06,-8.555
455.908,0.6918270000000001,-0.008962000000000001,,-8.962000000000003e-06,-8.962000000000002
455.971,0.6890729999999999,-0.009364,,-9.364e-06,-9.363999999999999
456.036,0.686318,-0.009729,,-9.729e-06,-9.729
456.095,0.6832189999999999,-0.009771,,-9.771e-06,-9.771
456.154,0.680292,-0.009633,,-9.633e-06,-9.633
456.211,0.677366,-0.009309,,-9.309e-06,-9.309
456.26800000000003,0.6742670000000001,-0.008938,,-8.938e-06,-8.937999999999999
456.32800000000003,0.670995,-0.008573,,-8.572999999999999e-06,-8.573
456.38800000000003,0.667724,-0.00838,,-8.380000000000001e-06,-8.38
456.44800000000004,0.664625,-0.008348999999999999,,-8.349e-06,-8.348999999999998
456.506,0.6615260000000001,-0.0084,,-8.400000000000001e-06,-8.4
456.564,0.6584270000000001,-0.008493,,-8.493e-06,-8.493
456.624,0.655328,-0.008573,,-8.572999999999999e-06,-8.573
456.68199999999996,0.652574,-0.008676,,-8.676e-06,-8.676
456.745,0.648958,-0.008709999999999999,,-8.71e-06,-8.709999999999999
456.80400000000003,0.645859,-0.00881,,-8.81e-06,-8.81
456.86199999999997,0.642932,-0.008912999999999999,,-8.913e-06,-8.912999999999998
456.92199999999997,0.639833,-0.008995999999999999,,-8.995999999999997e-06,-8.995999999999997
456.981,0.636907,-0.009082,,-9.082e-06,-9.082
457.042,0.6336350000000001,-0.009144,,-9.144e-06,-9.144
457.102,0.630709,-0.00923,,-9.23e-06,-9.23
457.166,0.627093,-0.009241,,-9.240999999999997e-06,-9.241
457.223,0.6239939999999999,-0.009375,,-9.375e-06,-9.375
457.282,0.621239,-0.009461,,-9.461e-06,-9.461
457.342,0.6179680000000001,-0.009537,,-9.537e-06,-9.537
457.402,0.615041,-0.009616,,-9.616e-06,-9.616
457.46,0.612115,-0.009695,,-9.695e-06,-9.695
457.519,0.609016,-0.009767,,-9.767e-06,-9.767000000000001
457.577,0.606089,-0.009822,,-9.821999999999997e-06,-9.822000000000001
457.63800000000003,0.6029899999999999,-0.009884,,-9.884e-06,-9.884
457.69599999999997,0.600063,-0.009926,,-9.926e-06,-9.926
457.756,0.596964,-0.009977,,-9.977000000000001e-06,-9.977
457.814,0.594037,-0.009964,,-9.964e-06,-9.964
457.87300000000005,0.590938,-0.00995,,-9.95e-06,-9.95
457.93199999999996,0.587839,-0.009943,,-9.943e-06,-9.943
457.99,0.5847399999999999,-0.009936,,-9.936e-06,-9.936
458.048,0.581641,-0.00996,,-9.96e-06,-9.96
458.106,0.5787140000000001,-0.010002,,-1.0001999999999997e-05,-10.002
458.164,0.575788,-0.010063,,-1.0062999999999997e-05,-10.063
458.222,0.572861,-0.010101,,-1.0101e-05,-10.101
458.279,0.570278,-0.010125,,-1.0125e-05,-10.125
458.34,0.567179,-0.010153,,-1.0153e-05,-10.152999999999999
458.4,0.5642520000000001,-0.010167,,-1.0167e-05,-10.167
458.459,0.561326,-0.010181,,-1.0181e-05,-10.181
458.51599999999996,0.558571,-0.010163,,-1.0162999999999999e-05,-10.163
458.57199999999995,0.555816,-0.010132,,-1.0132e-05,-10.131999999999998
458.63,0.552717,-0.01015,,-1.015e-05,-10.15
458.689,0.549618,-0.010191,,-1.0191e-05,-10.191
458.74699999999996,0.546864,-0.010239,,-1.0239e-05,-10.239
458.806,0.5437649999999999,-0.010287,,-1.0287000000000003e-05,-10.287
458.865,0.5411819999999999,-0.010349,,-1.0349e-05,-10.348999999999998
458.923,0.538083,-0.010432,,-1.0432000000000001e-05,-10.432
458.98199999999997,0.5351560000000001,-0.010504,,-1.0504e-05,-10.504
459.042,0.532402,-0.010573,,-1.0573e-05,-10.573
459.102,0.529475,-0.010645,,-1.0645e-05,-10.645
459.159,0.52672,-0.010711,,-1.0711e-05,-10.710999999999999
459.215,0.524138,-0.010721,,-1.0721e-05,-10.720999999999998
459.275,0.521211,-0.010787,,-1.0787e-05,-10.787
459.34,0.51794,-0.010917,,-1.0917e-05,-10.917
459.401,0.515013,-0.010986,,-1.0986e-05,-10.986
459.458,0.512258,-0.011048,,-1.1048e-05,-11.048
459.51599999999996,0.509504,-0.01111,,-1.111e-05,-11.11
459.574,0.506577,-0.011176,,-1.1176e-05,-11.175999999999998
459.63300000000004,0.50365,-0.011265,,-1.1265e-05,-11.265
459.69,0.5007229999999999,-0.011355,,-1.1355e-05,-11.355
459.74800000000005,0.497969,-0.011472,,-1.1472000000000001e-05,-11.472000000000001
459.80699999999996,0.495042,-0.011599,,-1.1599e-05,-11.599
459.866,0.492287,-0.011737,,-1.1737e-05,-11.737
459.92400000000004,0.489188,-0.011871,,-1.1870999999999999e-05,-11.870999999999999
459.983,0.486261,-0.012006,,-1.2006000000000003e-05,-12.005999999999998
460.042,0.483679,-0.012119,,-1.2119e-05,-12.119000000000002
460.1,0.4807520000000001,-0.012226,,-1.2226e-05,-12.225999999999999
460.157,0.477997,-0.012278,,-1.2278e-05,-12.277999999999999
460.214,0.475415,-0.012295,,-1.2295e-05,-12.295
460.27099999999996,0.47266,-0.012322,,-1.2322e-05,-12.322000000000001
460.32800000000003,0.4693890000000001,-0.012374,,-1.2374e-05,-12.374
460.38599999999997,0.466462,-0.012415,,-1.2415e-05,-12.415
460.445,0.46388,-0.01245,,-1.245e-05,-12.45
460.505,0.4607810000000001,-0.012446,,-1.2446e-05,-12.445999999999998
460.56300000000005,0.458198,-0.012446,,-1.2446e-05,-12.445999999999998
460.619,0.455271,-0.012391,,-1.2391e-05,-12.390999999999998
460.67800000000005,0.452517,-0.012291,,-1.2291e-05,-12.290999999999999
460.73699999999997,0.449762,-0.012171,,-1.2171e-05,-12.171
460.795,0.446663,-0.012016,,-1.2015999999999996e-05,-12.015999999999998
460.856,0.443564,-0.011888,,-1.1888e-05,-11.888
460.915,0.44081,-0.011744,,-1.1744000000000001e-05,-11.744000000000002
460.974,0.437711,-0.011589,,-1.1589e-05,-11.589
461.032,0.434784,-0.011444,,-1.1444000000000001e-05,-11.444
461.09,0.431685,-0.01132,,-1.132e-05,-11.32
461.148,0.42893,-0.011217,,-1.1217000000000001e-05,-11.217
461.20599999999996,0.426003,-0.011152,,-1.1152e-05,-11.152
461.264,0.423076,-0.011114,,-1.1114e-05,-11.114
461.32199999999995,0.420322,-0.011093,,-1.1093e-05,-11.093
461.38,0.417395,-0.011034,,-1.1034000000000001e-05,-11.034
461.439,0.41464,-0.010993,,-1.0993e-05,-10.993
461.49800000000005,0.411886,-0.010942,,-1.0942000000000001e-05,-10.942
461.556,0.408787,-0.010893,,-1.0892999999999999e-05,-10.892999999999999
461.615,0.406204,-0.010859,,-1.0859e-05,-10.859000000000002
461.67199999999997,0.40345,-0.0108,,-1.0800000000000002e-05,-10.8
461.73,0.400351,-0.010783,,-1.0783e-05,-10.783
461.79,0.397424,-0.010783,,-1.0783e-05,-10.783
461.848,0.394669,-0.010818,,-1.0817999999999999e-05,-10.818
461.908,0.391914,-0.010845,,-1.0845e-05,-10.845
461.968,0.388815,-0.010873,,-1.0872999999999999e-05,-10.873
462.026,0.386061,-0.010942,,-1.0942000000000001e-05,-10.942
462.086,0.383306,-0.010976,,-1.0976e-05,-10.976
462.147,0.380379,-0.01099,,-1.099e-05,-10.99
462.20300000000003,0.377625,-0.01109,,-1.109e-05,-11.090000000000002
462.26099999999997,0.374526,-0.011141,,-1.1140999999999999e-05,-11.140999999999998
462.32099999999997,0.371771,-0.011183,,-1.1183e-05,-11.183
462.38,0.368844,-0.011231,,-1.1231e-05,-11.231
462.44,0.365917,-0.011272,,-1.1272e-05,-11.271999999999998
462.49800000000005,0.363163,-0.011307,,-1.1307e-05,-11.307
462.55699999999996,0.360064,-0.011341,,-1.1340999999999999e-05,-11.341
462.615,0.357481,-0.011362,,-1.1362e-05,-11.362
462.67199999999997,0.354727,-0.011379,,-1.1379e-05,-11.379000000000001
462.72900000000004,0.3518,-0.011444,,-1.1444000000000001e-05,-11.444
462.788,0.348873,-0.01153,,-1.153e-05,-11.53
462.847,0.346118,-0.01161,,-1.161e-05,-11.61
462.906,0.343364,-0.011678,,-1.1677999999999999e-05,-11.677999999999999
462.963,0.340609,-0.011782,,-1.1781999999999997e-05,-11.781999999999998
463.02099999999996,0.33768200000000004,-0.011844,,-1.1844e-05,-11.844
463.08,0.334755,-0.011875,,-1.1875e-05,-11.875
463.14,0.331829,-0.011909,,-1.1909e-05,-11.909
463.19599999999997,0.329074,-0.011892,,-1.1892e-05,-11.892000000000001
463.254,0.326147,-0.011895,,-1.1895e-05,-11.895
463.31199999999995,0.32322,-0.011895,,-1.1895e-05,-11.895
463.37,0.32063800000000003,-0.011919,,-1.1919e-05,-11.919
463.42699999999996,0.317711,-0.011988,,-1.1988e-05,-11.988
463.49,0.314612,-0.012002,,-1.2002000000000001e-05,-12.002
463.54900000000004,0.311685,-0.012043,,-1.2043e-05,-12.043
463.61,0.308758,-0.012078,,-1.2078e-05,-12.078
463.667,0.306004,-0.012147,,-1.2147e-05,-12.147
463.724,0.303077,-0.012243,,-1.2243e-05,-12.243
463.783,0.30015,-0.012309,,-1.2309e-05,-12.309
463.842,0.297395,-0.01237,,-1.237e-05,-12.37
463.903,0.294469,-0.012432,,-1.2432e-05,-12.432
463.96,0.29137,-0.012519,,-1.2519000000000002e-05,-12.519
464.01800000000003,0.288615,-0.012574,,-1.2574e-05,-12.574000000000002
464.077,0.28586,-0.012643,,-1.2642999999999999e-05,-12.642999999999999
464.13599999999997,0.282933,-0.012708,,-1.2708e-05,-12.708
464.19300000000004,0.280179,-0.012698,,-1.2698e-05,-12.698
464.251,0.277252,-0.012708,,-1.2708e-05,-12.708
464.309,0.274669,-0.012742,,-1.2742000000000001e-05,-12.742
464.369,0.27157,-0.012777,,-1.2777e-05,-12.777
464.43,0.268644,-0.012811,,-1.2811000000000003e-05,-12.811000000000002
464.48699999999997,0.265717,-0.012873,,-1.2873e-05,-12.873
464.545,0.26279,-0.012963,,-1.2963e-05,-12.963
464.605,0.260035,-0.013025,,-1.3025e-05,-13.025
464.663,0.25710900000000003,-0.013131,,-1.3130999999999998e-05,-13.130999999999998
464.72,0.254182,-0.013213999999999998,,-1.3213999999999996e-05,-13.214
464.778,0.251255,-0.013262,,-1.3262e-05,-13.262
464.839,0.248328,-0.013352,,-1.3352e-05,-13.352
464.904,0.245401,-0.0134,,-1.34e-05,-13.4
464.961,0.242474,-0.013496,,-1.3496e-05,-13.495999999999999
465.02,0.239548,-0.013538,,-1.3538e-05,-13.538
465.07800000000003,0.236621,-0.013565,,-1.3565e-05,-13.565
465.13699999999994,0.233694,-0.013596,,-1.3596e-05,-13.595999999999998
465.194,0.231111,-0.013576,,-1.3575999999999998e-05,-13.576
465.251,0.228185,-0.013596,,-1.3596e-05,-13.595999999999998
465.30800000000005,0.22543,-0.013665,,-1.3665e-05,-13.665
465.36800000000005,0.222331,-0.013724,,-1.3724000000000001e-05,-13.724
465.426,0.219576,-0.013806,,-1.3806e-05,-13.806
465.486,0.21665,-0.013841,,-1.3840999999999997e-05,-13.841
465.545,0.213723,-0.013937,,-1.3937e-05,-13.937000000000001
465.60400000000004,0.210796,-0.014006,,-1.4006e-05,-14.005999999999998
465.662,0.207697,-0.014096,,-1.4095999999999999e-05,-14.095999999999998
465.719,0.205114,-0.014154,,-1.4154e-05,-14.154000000000002
465.777,0.202532,-0.014188999999999997,,-1.4189000000000001e-05,-14.188999999999998
465.836,0.199433,-0.014226,,-1.4226e-05,-14.226
465.897,0.196506,-0.014313,,-1.4313e-05,-14.313
465.955,0.193924,-0.01434,,-1.434e-05,-14.34
466.01300000000003,0.190825,-0.014378,,-1.4378e-05,-14.378
466.07300000000004,0.187898,-0.014461000000000003,,-1.4461e-05,-14.461000000000002
466.131,0.184971,-0.014529,,-1.4529000000000001e-05,-14.528999999999998
466.189,0.182044,-0.014622,,-1.4622e-05,-14.622
466.246,0.17929,-0.014767,,-1.4767000000000001e-05,-14.767000000000001
466.305,0.176535,-0.014877,,-1.4877000000000003e-05,-14.877
466.36400000000003,0.17360799999999998,-0.014984,,-1.4984e-05,-14.984000000000002
466.42199999999997,0.170681,-0.015115,,-1.5115e-05,-15.115
466.47900000000004,0.168099,-0.015208,,-1.5207999999999999e-05,-15.208
466.539,0.165172,-0.015332,,-1.5332e-05,-15.332
466.598,0.162245,-0.015483000000000004,,-1.5483e-05,-15.483000000000002
466.657,0.15949100000000002,-0.015556,,-1.5555999999999998e-05,-15.556
466.713,0.156564,-0.01559,,-1.559e-05,-15.590000000000002
466.773,0.153637,-0.015697,,-1.5697e-05,-15.697000000000001
466.832,0.15070999999999998,-0.015778999999999998,,-1.5779000000000003e-05,-15.778999999999998
466.89099999999996,0.147783,-0.015875999999999998,,-1.5876e-05,-15.875999999999998
466.94800000000004,0.14485599999999998,-0.016007,,-1.6007e-05,-16.007
467.004,0.142274,-0.016165000000000002,,-1.6165000000000002e-05,-16.165000000000006
467.061,0.139347,-0.016281999999999998,,-1.6281999999999998e-05,-16.281999999999996
467.12199999999996,0.13642,-0.016396,,-1.6396e-05,-16.396
467.18,0.133666,-0.016485,,-1.6485e-05,-16.485
467.23900000000003,0.13073900000000002,-0.016582,,-1.6581999999999998e-05,-16.582
467.29699999999997,0.127984,-0.016654,,-1.6654e-05,-16.654
467.356,0.125057,-0.016730000000000002,,-1.673e-05,-16.73
467.415,0.122131,-0.016799,,-1.6799000000000006e-05,-16.799000000000003
467.473,0.119032,-0.016867,,-1.6867e-05,-16.867
467.532,0.116277,-0.01696,,-1.696e-05,-16.96
467.593,0.11335,-0.01706,,-1.706e-05,-17.06
467.653,0.110251,-0.017174000000000002,,-1.7174000000000002e-05,-17.174000000000003
467.71,0.107324,-0.017287999999999998,,-1.7287999999999998e-05,-17.287999999999997
467.77099999999996,0.10457,-0.017411000000000003,,-1.7411000000000007e-05,-17.410999999999998
467.83099999999996,0.101471,-0.017529,,-1.7529e-05,-17.529
467.89,0.098544,-0.01768,,-1.768e-05,-17.68
467.94699999999995,0.095961,-0.017876,,-1.7876e-05,-17.875999999999998
468.01199999999994,0.092862,-0.017997,,-1.7997e-05,-17.997
468.07199999999995,0.089763,-0.018169,,-1.8169e-05,-18.169
468.13,0.086837,-0.018379,,-1.8379e-05,-18.379
468.19,0.084082,-0.018613,,-1.8613e-05,-18.613
468.24699999999996,0.081327,-0.018892,,-1.8892e-05,-18.892
468.30400000000003,0.078573,-0.019216,,-1.9216e-05,-19.215999999999998
468.36300000000006,0.075646,-0.019533,,-1.9533e-05,-19.533
468.42199999999997,0.073063,-0.019891,,-1.9891e-05,-19.891
468.48,0.070309,-0.020287,,-2.0287e-05,-20.287
468.543,0.06721,-0.020813,,-2.0813000000000002e-05,-20.813000000000002
468.602,0.064627,-0.021364,,-2.1364e-05,-21.364
468.661,0.0617,-0.022029,,-2.2029000000000002e-05,-22.029
468.721,0.05894600000000001,-0.022817,,-2.2817e-05,-22.816999999999997
468.778,0.056363,-0.023644,,-2.3644e-05,-23.644000000000002
468.838,0.054642,-0.022928,,-2.2928e-05,-22.928
468.897,0.055502,-0.017019,,-1.7019e-05,-17.019000000000002
468.95599999999996,0.056708,-0.014374,,-1.4374000000000003e-05,-14.374
469.02099999999996,0.058774,-0.012656,,-1.2655999999999999e-05,-12.655999999999999
469.08,0.06084,-0.011448,,-1.1448e-05,-11.448
469.14,0.06325,-0.010714,,-1.0714000000000001e-05,-10.714
469.19800000000004,0.066005,-0.010184,,-1.0184e-05,-10.184
469.255,0.068243,-0.009616,,-9.616e-06,-9.616
469.31300000000005,0.070997,-0.009189,,-9.189e-06,-9.189
469.37300000000005,0.07357999999999999,-0.008862,,-8.862000000000001e-06,-8.862
469.43199999999996,0.076334,-0.008693000000000001,,-8.693000000000001e-06,-8.693000000000001
469.49,0.07908899999999999,-0.008542000000000001,,-8.542e-06,-8.542000000000002
469.54900000000004,0.08201599999999999,-0.008421,,-8.421e-06,-8.421
469.608,0.085115,-0.008407,,-8.407000000000001e-06,-8.407
469.666,0.088214,-0.008414,,-8.414e-06,-8.414
469.727,0.090969,-0.008345,,-8.345e-06,-8.345
469.788,0.094412,-0.008297,,-8.297e-06,-8.297
469.847,0.097339,-0.008297,,-8.297e-06,-8.297
469.906,0.100438,-0.00829,,-8.29e-06,-8.290000000000001
469.964,0.103364,-0.00829,,-8.29e-06,-8.290000000000001
470.023,0.10646300000000003,-0.008283,,-8.283e-06,-8.283000000000001
470.08099999999996,0.10939000000000003,-0.008273,,-8.273e-06,-8.273000000000001
470.139,0.112489,-0.008235,,-8.235e-06,-8.235
470.19699999999995,0.115244,-0.00818,,-8.18e-06,-8.18
470.256,0.118343,-0.008139,,-8.139000000000001e-06,-8.139000000000001
470.32,0.12127,-0.008173,,-8.173e-06,-8.173
470.37699999999995,0.124369,-0.008101,,-8.101000000000001e-06,-8.101
470.435,0.127296,-0.008034999999999999,,-8.034999999999997e-06,-8.034999999999998
470.49300000000005,0.130222,-0.008004,,-8.004e-06,-8.004000000000001
470.55199999999996,0.133149,-0.007987000000000001,,-7.987000000000003e-06,-7.987000000000001
