time,potential,current1_mA,coll_current,current1,current1_muA
1295.3210000000001,0.111112,-0.03489,,-3.489e-05,-34.89
1295.383,0.113694,-0.034046,,-3.4046e-05,-34.046
1295.443,0.115933,-0.033199,,-3.3199e-05,-33.199
1295.507,0.118515,-0.032314,,-3.2314e-05,-32.31399999999999
1295.568,0.121098,-0.031484,,-3.1484e-05,-31.484
1295.633,0.124197,-0.030627,,-3.0627e-05,-30.627
1295.6960000000001,0.127123,-0.029928,,-2.9927999999999995e-05,-29.928
1295.757,0.13005,-0.029305,,-2.9305e-05,-29.305
1295.818,0.132633,-0.02874,,-2.874e-05,-28.74
1295.88,0.135732,-0.028244,,-2.8244e-05,-28.244
1295.9389999999999,0.138486,-0.027783,,-2.7783e-05,-27.783
1296.003,0.141413,-0.0274,,-2.74e-05,-27.4
1296.066,0.144512,-0.027032,,-2.7031999999999998e-05,-27.031999999999996
1296.128,0.147439,-0.026677,,-2.6677e-05,-26.677
1296.19,0.15070999999999998,-0.026357,,-2.6357e-05,-26.357
1296.253,0.153981,-0.026078,,-2.6078e-05,-26.078
1296.316,0.157252,-0.025879000000000003,,-2.5879000000000008e-05,-25.879
1296.379,0.16000699999999998,-0.025744,,-2.5744e-05,-25.744
1296.4389999999999,0.163106,-0.025572,,-2.5572e-05,-25.572000000000006
1296.506,0.166549,-0.0254,,-2.54e-05,-25.4
1296.568,0.169304,-0.025186,,-2.5186e-05,-25.186
1296.632,0.172575,-0.024942,,-2.4942e-05,-24.941999999999997
1296.695,0.175846,-0.024759,,-2.4759e-05,-24.759
1296.756,0.17877300000000002,-0.02458,,-2.458e-05,-24.58
1296.819,0.181872,-0.024456,,-2.4456e-05,-24.456
1296.882,0.184971,-0.024326,,-2.4326e-05,-24.326
1296.944,0.18807,-0.024157,,-2.4157e-05,-24.157
1297.008,0.191341,-0.023919,,-2.3919000000000003e-05,-23.919
1297.07,0.19444,-0.023737,,-2.3736999999999997e-05,-23.737
1297.132,0.197539,-0.023541,,-2.3541e-05,-23.541
1297.194,0.200466,-0.023382,,-2.3381999999999997e-05,-23.381999999999998
1297.254,0.203565,-0.02321,,-2.321e-05,-23.21
1297.315,0.20632,-0.023031,,-2.3031e-05,-23.031
1297.376,0.209419,-0.022852,,-2.2851999999999997e-05,-22.851999999999997
1297.437,0.212518,-0.022632,,-2.2632e-05,-22.632
1297.5,0.215617,-0.022483000000000003,,-2.2483e-05,-22.483000000000004
1297.562,0.218716,-0.022301,,-2.2301e-05,-22.301
1297.626,0.222159,-0.022043,,-2.2043000000000002e-05,-22.043000000000003
1297.692,0.225258,-0.021743,,-2.1743e-05,-21.743
1297.754,0.228357,-0.02155,,-2.155e-05,-21.55
1297.815,0.231111,-0.021337,,-2.1337000000000006e-05,-21.337000000000003
1297.877,0.23421,-0.02112,,-2.112e-05,-21.12
1297.9360000000001,0.237137,-0.020889,,-2.0889e-05,-20.889
1298.0,0.240408,-0.020738,,-2.0738e-05,-20.738000000000003
1298.062,0.243335,-0.020548,,-2.0548e-05,-20.548
1298.123,0.246606,-0.020331,,-2.0331e-05,-20.331000000000003
1298.192,0.25005,-0.019991,,-1.9991e-05,-19.991
1298.253,0.252804,-0.019798,,-1.9798e-05,-19.798
1298.315,0.256076,-0.019588,,-1.9588000000000006e-05,-19.588
1298.379,0.259002,-0.019288,,-1.9288e-05,-19.288
1298.44,0.261929,-0.018951,,-1.8951e-05,-18.951
1298.504,0.265372,-0.018551,,-1.8551e-05,-18.551
1298.567,0.268471,-0.0182,,-1.82e-05,-18.2
1298.629,0.27157,-0.017921,,-1.7921e-05,-17.921
1298.6960000000001,0.274669,-0.017773,,-1.7773e-05,-17.773
1298.757,0.277424,-0.017601,,-1.7601e-05,-17.601
1298.819,0.28086700000000003,-0.017401,,-1.7400999999999998e-05,-17.401
1298.882,0.283966,-0.017157,,-1.7157000000000002e-05,-17.157
1298.945,0.287238,-0.016867,,-1.6867e-05,-16.867
1299.006,0.290337,-0.016630000000000002,,-1.6630000000000002e-05,-16.630000000000006
1299.069,0.293263,-0.01633,,-1.633e-05,-16.330000000000002
1299.132,0.296362,-0.016089,,-1.6088999999999998e-05,-16.089000000000002
1299.194,0.299289,-0.015875999999999998,,-1.5876e-05,-15.875999999999998
1299.255,0.302388,-0.015652000000000003,,-1.5652000000000002e-05,-15.652000000000005
1299.317,0.305487,-0.015411,,-1.5411000000000002e-05,-15.411
1299.381,0.308586,-0.015138999999999996,,-1.5139e-05,-15.138999999999998
1299.441,0.311685,-0.01487,,-1.487e-05,-14.87
1299.501,0.31444,-0.014616,,-1.4615999999999999e-05,-14.616
1299.563,0.317711,-0.014354,,-1.4353999999999997e-05,-14.354000000000001
1299.624,0.32081,-0.014044,,-1.4044000000000001e-05,-14.044
1299.688,0.324081,-0.013641,,-1.3640999999999999e-05,-13.640999999999998
1299.751,0.326836,-0.013348,,-1.3347999999999997e-05,-13.348
1299.813,0.32976300000000003,-0.013094,,-1.3094e-05,-13.094000000000001
1299.876,0.333034,-0.012784,,-1.2784000000000002e-05,-12.784
1299.937,0.33596,-0.012453,,-1.2453e-05,-12.453
1299.997,0.338887,-0.012136,,-1.2136e-05,-12.136
1300.06,0.341814,-0.011844,,-1.1844e-05,-11.844
1300.122,0.344913,-0.011492,,-1.1492e-05,-11.492
1300.188,0.348356,-0.011031,,-1.1031000000000003e-05,-11.030999999999999
1300.251,0.351455,-0.010649,,-1.0649000000000001e-05,-10.649000000000001
1300.313,0.35421,-0.010315,,-1.0315000000000004e-05,-10.315
1300.376,0.357481,-0.009943,,-9.943e-06,-9.943
1300.44,0.360408,-0.009612,,-9.612e-06,-9.612
1300.5,0.363507,-0.009378,,-9.377999999999999e-06,-9.378
1300.563,0.366606,-0.00912,,-9.12e-06,-9.12
1300.624,0.369705,-0.008838,,-8.837999999999999e-06,-8.838000000000003
1300.6860000000001,0.372804,-0.008604,,-8.604000000000001e-06,-8.604000000000001
1300.752,0.376247,-0.008362,,-8.361999999999999e-06,-8.362
1300.8139999999999,0.379174,-0.008245,,-8.245e-06,-8.245000000000001
1300.875,0.382273,-0.008111,,-8.111e-06,-8.111
1300.9360000000001,0.385372,-0.007973000000000001,,-7.973000000000001e-06,-7.973000000000001
1300.996,0.388299,-0.007798,,-7.797999999999999e-06,-7.797999999999999
1301.057,0.391398,-0.007622,,-7.622e-06,-7.622000000000001
1301.12,0.394497,-0.0075260000000000014,,-7.526e-06,-7.526000000000002
1301.181,0.397596,-0.00744,,-7.440000000000002e-06,-7.44
1301.244,0.400523,-0.007333,,-7.333e-06,-7.332999999999999
1301.305,0.403794,-0.007212,,-7.212e-06,-7.2120000000000015
1301.367,0.406721,-0.007064,,-7.064e-06,-7.064
1301.4289999999999,0.409992,-0.006909,,-6.908999999999999e-06,-6.909
1301.49,0.412746,-0.006784999999999999,,-6.7849999999999986e-06,-6.784999999999998
1301.552,0.4160180000000001,-0.006665000000000001,,-6.665000000000001e-06,-6.665000000000001
1301.614,0.419289,-0.006555,,-6.555e-06,-6.555
1301.675,0.422388,-0.006448000000000001,,-6.448000000000002e-06,-6.4479999999999995
1301.737,0.425487,-0.006345,,-6.345e-06,-6.345
1301.8010000000002,0.428586,-0.006252000000000001,,-6.252e-06,-6.252000000000002
1301.863,0.431513,-0.0061,,-6.1e-06,-6.1000000000000005
1301.924,0.434612,-0.005918,,-5.918e-06,-5.917999999999998
1301.987,0.437366,-0.005684000000000001,,-5.684000000000002e-06,-5.684000000000001
1302.048,0.440121,-0.005501,,-5.501e-06,-5.501
1302.108,0.443392,-0.005326,,-5.326e-06,-5.3260000000000005
1302.171,0.446319,-0.005091,,-5.091e-06,-5.091
1302.232,0.44959,-0.0048920000000000005,,-4.892000000000002e-06,-4.8919999999999995
1302.2939999999999,0.452689,-0.004716,,-4.7159999999999986e-06,-4.715999999999998
1302.359,0.456132,-0.004599,,-4.599e-06,-4.599
1302.422,0.459059,-0.004444,,-4.444e-06,-4.444
1302.483,0.461986,-0.004279,,-4.279e-06,-4.279
1302.5430000000001,0.465085,-0.0041340000000000005,,-4.1340000000000006e-06,-4.1339999999999995
1302.605,0.46784,-0.003996,,-3.996e-06,-3.996
1302.6680000000001,0.4709390000000001,-0.003845,,-3.8450000000000005e-06,-3.845
1302.73,0.474038,-0.003731,,-3.731e-06,-3.731
1302.79,0.4769640000000001,-0.003666,,-3.666e-06,-3.666
1302.851,0.480063,-0.003621,,-3.621e-06,-3.6210000000000004
1302.914,0.483335,-0.00359,,-3.59e-06,-3.59
1302.976,0.486778,-0.0036,,-3.6000000000000003e-06,-3.6
1303.04,0.4898770000000001,-0.003649,,-3.6489999999999997e-06,-3.649000000000001
1303.103,0.492976,-0.00368,,-3.68e-06,-3.68
1303.171,0.4962470000000001,-0.00358,,-3.58e-06,-3.58
1303.245,0.500035,-0.003721,,-3.721e-06,-3.721
1303.307,0.502961,-0.0037,,-3.7000000000000006e-06,-3.7
1303.368,0.5060600000000001,-0.003714,,-3.714e-06,-3.714
1303.431,0.509504,-0.0037,,-3.7000000000000006e-06,-3.7
1303.492,0.5126029999999999,-0.003707,,-3.707e-06,-3.707
1303.552,0.515702,-0.003717,,-3.7169999999999997e-06,-3.717
1303.613,0.5188010000000001,-0.003724,,-3.724e-06,-3.7239999999999998
1303.674,0.5219,-0.003738,,-3.738000000000001e-06,-3.738
1303.735,0.525171,-0.003748,,-3.748e-06,-3.748
1303.795,0.528098,-0.003738,,-3.738000000000001e-06,-3.738
1303.856,0.5310239999999999,-0.003748,,-3.748e-06,-3.748
1303.92,0.534296,-0.003817,,-3.817e-06,-3.8169999999999997
1303.984,0.537395,-0.003814,,-3.814e-06,-3.8139999999999996
1304.0539999999999,0.54101,-0.003697,,-3.697e-06,-3.697
1304.116,0.5441090000000001,-0.0037,,-3.7000000000000006e-06,-3.7
1304.178,0.547208,-0.003711,,-3.711e-06,-3.7110000000000003
1304.24,0.550135,-0.003704,,-3.7039999999999996e-06,-3.704
1304.3010000000002,0.55289,-0.00369,,-3.69e-06,-3.69
1304.361,0.5559890000000001,-0.003666,,-3.666e-06,-3.666
1304.423,0.559088,-0.003652,,-3.652e-06,-3.6519999999999997
1304.485,0.562014,-0.0036,,-3.6000000000000003e-06,-3.6
1304.547,0.565113,-0.003542,,-3.5419999999999997e-06,-3.542
1304.608,0.5682119999999999,-0.003494,,-3.494e-06,-3.494
1304.67,0.5711390000000001,-0.003425,,-3.425e-06,-3.4250000000000003
1304.732,0.5745819999999999,-0.003383,,-3.383e-06,-3.383
1304.7939999999999,0.577509,-0.003366,,-3.366e-06,-3.366
1304.857,0.58078,-0.00338,,-3.38e-06,-3.38
1304.917,0.583879,-0.0033590000000000004,,-3.359000000000001e-06,-3.3590000000000004
1304.9769999999999,0.586634,-0.003346,,-3.3460000000000002e-06,-3.346
1305.039,0.589733,-0.0033590000000000004,,-3.359000000000001e-06,-3.3590000000000004
1305.099,0.592832,-0.0033420000000000004,,-3.3420000000000008e-06,-3.3420000000000005
1305.162,0.595759,-0.0033350000000000003,,-3.3350000000000007e-06,-3.3350000000000004
1305.223,0.5986859999999999,-0.003308,,-3.308e-06,-3.3080000000000003
1305.285,0.6016130000000001,-0.003253,,-3.253000000000001e-06,-3.253
1305.346,0.604539,-0.003232,,-3.2319999999999997e-06,-3.2319999999999998
1305.414,0.6083270000000001,-0.003153,,-3.153e-06,-3.153
1305.4769999999999,0.611426,-0.003194,,-3.1940000000000007e-06,-3.1940000000000004
1305.539,0.614697,-0.003239,,-3.239e-06,-3.2390000000000003
1305.601,0.617624,-0.0032700000000000003,,-3.270000000000001e-06,-3.2700000000000005
1305.662,0.6205510000000001,-0.00328,,-3.28e-06,-3.28
1305.723,0.623305,-0.003273,,-3.2730000000000003e-06,-3.273
1305.785,0.626577,-0.003253,,-3.253000000000001e-06,-3.253
1305.848,0.629676,-0.003215,,-3.215e-06,-3.215
1305.91,0.632775,-0.003184,,-3.1840000000000008e-06,-3.1839999999999997
1305.974,0.6362180000000001,-0.003194,,-3.1940000000000007e-06,-3.1940000000000004
1306.035,0.639145,-0.003222,,-3.222e-06,-3.222
1306.1019999999999,0.642416,-0.003318,,-3.3180000000000003e-06,-3.318
1306.163,0.645515,-0.003321,,-3.321e-06,-3.321
1306.224,0.648442,-0.003311,,-3.311e-06,-3.3110000000000004
1306.286,0.6513680000000001,-0.003273,,-3.2730000000000003e-06,-3.273
1306.347,0.65464,-0.003235,,-3.235e-06,-3.235
1306.41,0.6577390000000001,-0.003187,,-3.1869999999999997e-06,-3.1870000000000003
1306.472,0.66101,-0.003167,,-3.167e-06,-3.1670000000000003
1306.5330000000001,0.663937,-0.003156,,-3.1560000000000004e-06,-3.156
1306.594,0.667036,-0.003153,,-3.153e-06,-3.153
1306.656,0.669962,-0.003136,,-3.136e-06,-3.136
1306.718,0.673234,-0.003108,,-3.108e-06,-3.108
1306.779,0.67616,-0.00297,,-2.97e-06,-2.97
1306.849,0.679087,-0.002585,,-2.585e-06,-2.585
1306.912,0.682531,-0.002202,,-2.202e-06,-2.202
1306.974,0.685285,-0.001875,,-1.875e-06,-1.875
1307.0430000000001,0.688384,-0.001641,,-1.641e-06,-1.641
1307.104,0.691311,-0.001441,,-1.4409999999999998e-06,-1.4409999999999998
1307.167,0.694066,-0.001348,,-1.348e-06,-1.348
1307.23,0.697509,-0.001404,,-1.4039999999999998e-06,-1.4040000000000001
1307.289,0.700436,-0.001552,,-1.552e-06,-1.5519999999999998
1307.349,0.703363,-0.0017,,-1.6999999999999996e-06,-1.7
1307.412,0.706806,-0.0018170000000000005,,-1.8170000000000003e-06,-1.817
1307.474,0.710249,-0.001927,,-1.927e-06,-1.927
1307.537,0.713176,-0.002044,,-2.0440000000000003e-06,-2.044
1307.6,0.716275,-0.002099,,-2.099e-06,-2.099
1307.662,0.719202,-0.0021030000000000003,,-2.1030000000000004e-06,-2.103
1307.726,0.7224729999999999,-0.002016,,-2.016e-06,-2.016
1307.787,0.725572,-0.001958,,-1.958e-06,-1.958
1307.857,0.729187,-0.001924,,-1.924e-06,-1.9240000000000002
1307.92,0.732114,-0.001882,,-1.882e-06,-1.882
1307.982,0.7350409999999999,-0.001775,,-1.7750000000000004e-06,-1.775
1308.047,0.738312,-0.001552,,-1.552e-06,-1.5519999999999998
1308.109,0.741239,-0.001393,,-1.3929999999999998e-06,-1.393
1308.171,0.74451,-0.001252,,-1.2519999999999998e-06,-1.2519999999999998
1308.233,0.747609,-0.001114,,-1.114e-06,-1.114
1308.292,0.75002,-0.000946,,-9.46e-07,-0.946
1308.353,0.753119,-0.000787,,-7.87e-07,-0.787
1308.4180000000001,0.756562,-0.0006940000000000001,,-6.94e-07,-0.6940000000000001
1308.481,0.7594890000000001,-0.000519,,-5.19e-07,-0.519
1308.542,0.762243,-0.000315,,-3.15e-07,-0.315
1308.604,0.76517,-9.2e-05,,-9.199999999999999e-08,-0.092
1308.667,0.768269,0.000153,,1.53e-07,0.153
1308.73,0.771196,0.00038,,3.8e-07,0.38
1308.792,0.774467,0.000559,,5.590000000000001e-07,0.5589999999999999
1308.8519999999999,0.7772220000000001,0.000745,,7.45e-07,0.745
1308.915,0.780321,0.000872,,8.720000000000002e-07,0.8720000000000001
1308.976,0.783075,0.001017,,1.017e-06,1.0170000000000001
1309.039,0.7860020000000001,0.001155,,1.155e-06,1.155
1309.099,0.788929,0.001313,,1.3130000000000002e-06,1.3130000000000002
1309.16,0.792028,0.001465,,1.465e-06,1.465
1309.222,0.794783,0.001633,,1.633e-06,1.633
1309.285,0.79771,0.001826,,1.826e-06,1.8259999999999998
1309.346,0.800981,0.00195,,1.95e-06,1.95
1309.407,0.8037350000000001,0.002095,,2.0950000000000003e-06,2.095
1309.469,0.806834,0.002215,,2.215e-06,2.215
1309.5330000000001,0.809933,0.002274,,2.274e-06,2.274
1309.594,0.81286,0.00235,,2.35e-06,2.35
1309.657,0.816131,0.002377,,2.377e-06,2.377
1309.718,0.819058,0.002432,,2.4319999999999998e-06,2.432
1309.78,0.8219850000000001,0.002508,,2.508e-06,2.508
1309.8410000000001,0.825084,0.002577,,2.577e-06,2.577
1309.902,0.827839,0.002646,,2.646e-06,2.6460000000000004
1309.965,0.830938,0.002753,,2.753e-06,2.753
1310.028,0.8343809999999999,0.002859,,2.8589999999999996e-06,2.859
1310.089,0.8371360000000001,0.002911,,2.911e-06,2.911
1310.15,0.840407,0.002956,,2.956e-06,2.9560000000000004
1310.212,0.843334,0.002973,,2.973e-06,2.9730000000000003
