time,potential,current1_mA,coll_current,current1,current1_muA
1415.4360000000001,0.84626,-0.000629,,-6.29e-07,-0.629
1415.4979999999998,0.843161,-0.000698,,-6.979999999999999e-07,-0.6980000000000001
1415.56,0.8402350000000001,-0.000787,,-7.87e-07,-0.787
1415.622,0.8373079999999999,-0.000866,,-8.659999999999999e-07,-0.866
1415.6860000000001,0.834209,-0.000935,,-9.35e-07,-0.935
1415.747,0.831282,-0.000963,,-9.63e-07,-0.963
1415.808,0.828355,-0.001008,,-1.008e-06,-1.008
1415.868,0.8256,-0.001052,,-1.052e-06,-1.052
1415.932,0.8223290000000001,-0.001042,,-1.042e-06,-1.042
1415.995,0.8194020000000001,-0.001073,,-1.073e-06,-1.073
1416.058,0.8166479999999999,-0.001169,,-1.1690000000000002e-06,-1.1689999999999998
1416.124,0.813204,-0.001352,,-1.352e-06,-1.352
1416.185,0.8102779999999999,-0.001435,,-1.4349999999999996e-06,-1.4349999999999998
1416.246,0.807351,-0.001521,,-1.521e-06,-1.521
1416.3110000000001,0.80408,-0.001534,,-1.534e-06,-1.534
1416.3729999999998,0.801153,-0.001607,,-1.6069999999999996e-06,-1.607
1416.435,0.798226,-0.001696,,-1.696e-06,-1.696
1416.497,0.795299,-0.0018170000000000005,,-1.8170000000000003e-06,-1.817
1416.558,0.7925449999999999,-0.001972,,-1.972e-06,-1.972
1416.621,0.789446,-0.002147,,-2.147e-06,-2.147
1416.683,0.786347,-0.00233,,-2.33e-06,-2.33
1416.75,0.7832479999999999,-0.00245,,-2.45e-06,-2.45
1416.8129999999999,0.780321,-0.002543,,-2.543e-06,-2.543
1416.875,0.77705,-0.002691,,-2.691e-06,-2.6910000000000003
1416.9379999999999,0.774467,-0.002867,,-2.867e-06,-2.867
1417.0079999999998,0.7708520000000001,-0.003156,,-3.1560000000000004e-06,-3.156
1417.0710000000001,0.768097,-0.0032700000000000003,,-3.270000000000001e-06,-3.2700000000000005
1417.134,0.76517,-0.003377,,-3.377e-06,-3.377
1417.1960000000001,0.762243,-0.0035380000000000008,,-3.5380000000000007e-06,-3.5380000000000003
1417.257,0.7591439999999999,-0.003697,,-3.697e-06,-3.697
1417.319,0.75639,-0.003879,,-3.8790000000000005e-06,-3.8789999999999996
1417.382,0.753463,-0.0041,,-4.1000000000000006e-06,-4.1000000000000005
1417.445,0.750364,-0.004268,,-4.2680000000000005e-06,-4.268
1417.5120000000002,0.747093,-0.004323,,-4.323e-06,-4.323
1417.575,0.744166,-0.004423,,-4.423e-06,-4.423
1417.639,0.741239,-0.004575,,-4.575e-06,-4.575
1417.701,0.738312,-0.004757,,-4.7569999999999995e-06,-4.757
1417.763,0.735558,-0.004895,,-4.895e-06,-4.8950000000000005
1417.8339999999998,0.73177,-0.004954,,-4.9539999999999995e-06,-4.954
1417.896,0.728843,-0.00506,,-5.0600000000000015e-06,-5.0600000000000005
1417.9589999999998,0.725744,-0.005212,,-5.2119999999999985e-06,-5.212000000000001
1418.021,0.7229899999999999,-0.005377000000000001,,-5.377e-06,-5.377000000000002
1418.0829999999999,0.720063,-0.005556,,-5.556e-06,-5.556
1418.146,0.716792,-0.0057280000000000005,,-5.727999999999999e-06,-5.7280000000000015
1418.21,0.713693,-0.005866,,-5.8659999999999986e-06,-5.8660000000000005
1418.2720000000002,0.710594,-0.006004,,-6.004e-06,-6.004
1418.3339999999998,0.707667,-0.006173,,-6.172999999999999e-06,-6.172999999999999
1418.398,0.7047399999999999,-0.006379,,-6.378999999999999e-06,-6.379
1418.4620000000002,0.701813,-0.006703,,-6.702999999999999e-06,-6.7029999999999985
1418.527,0.698542,-0.00704,,-7.04e-06,-7.04
1418.588,0.695443,-0.00734,,-7.34e-06,-7.34
1418.652,0.692516,-0.007612000000000002,,-7.612000000000002e-06,-7.612000000000001
1418.714,0.6894170000000001,-0.007831999999999999,,-7.831999999999999e-06,-7.831999999999999
1418.775,0.686318,-0.007967,,-7.967e-06,-7.967
1418.8410000000001,0.6832189999999999,-0.007942,,-7.942000000000001e-06,-7.941999999999998
1418.904,0.68012,-0.007774,,-7.774e-06,-7.774
1418.967,0.676333,-0.007464,,-7.464e-06,-7.4639999999999995
1419.0339999999999,0.672717,-0.007023000000000001,,-7.0229999999999995e-06,-7.0230000000000015
1419.096,0.669446,-0.006827,,-6.827000000000001e-06,-6.827000000000001
1419.158,0.666175,-0.006784999999999999,,-6.7849999999999986e-06,-6.784999999999998
1419.22,0.663076,-0.006816,,-6.8160000000000005e-06,-6.816
1419.281,0.659977,-0.006843999999999999,,-6.843999999999998e-06,-6.8439999999999985
1419.3410000000001,0.656706,-0.006878,,-6.877999999999999e-06,-6.877999999999999
1419.405,0.653434,-0.006971,,-6.971e-06,-6.971
1419.469,0.6498189999999999,-0.006998999999999999,,-6.9989999999999985e-06,-6.998999999999999
1419.535,0.6463760000000001,-0.006944,,-6.944e-06,-6.944
1419.5970000000002,0.6434489999999999,-0.006982,,-6.9819999999999985e-06,-6.981999999999998
1419.661,0.64035,-0.007068000000000001,,-7.068000000000002e-06,-7.0680000000000005
1419.723,0.637079,-0.007156999999999998,,-7.1569999999999986e-06,-7.156999999999999
1419.787,0.633808,-0.007233,,-7.232999999999999e-06,-7.233
1419.849,0.630536,-0.007268000000000002,,-7.268000000000001e-06,-7.268000000000002
1419.911,0.627437,-0.007281,,-7.281e-06,-7.2810000000000015
1419.975,0.6243380000000001,-0.007271,,-7.270999999999999e-06,-7.271
1420.0410000000002,0.621239,-0.00735,,-7.35e-06,-7.35
1420.1029999999998,0.6181399999999999,-0.007436,,-7.4360000000000005e-06,-7.436
1420.171,0.6141810000000001,-0.007484,,-7.484e-06,-7.484
1420.239,0.611254,-0.007478,,-7.477999999999999e-06,-7.4780000000000015
1420.3020000000001,0.6083270000000001,-0.007581,,-7.581e-06,-7.581
1420.365,0.604711,-0.007664,,-7.664e-06,-7.664
1420.4279999999999,0.601785,-0.007708,,-7.708e-06,-7.707999999999998
1420.49,0.5986859999999999,-0.007719,,-7.719e-06,-7.718999999999999
1420.5520000000001,0.595587,-0.007719,,-7.719e-06,-7.718999999999999
1420.6170000000002,0.592316,-0.007677,,-7.677000000000001e-06,-7.6770000000000005
1420.6789999999999,0.589389,-0.007712,,-7.712e-06,-7.712000000000001
1420.739,0.58629,-0.007731999999999998,,-7.732e-06,-7.731999999999998
1420.8,0.583707,-0.007756,,-7.756e-06,-7.756
1420.861,0.580436,-0.0077909999999999984,,-7.790999999999999e-06,-7.790999999999999
1420.921,0.577509,-0.007815,,-7.815e-06,-7.815
1420.983,0.574238,-0.007863,,-7.862999999999999e-06,-7.8629999999999995
1421.046,0.570967,-0.007932,,-7.932e-06,-7.931999999999999
1421.111,0.567696,-0.007911,,-7.911000000000001e-06,-7.9110000000000005
1421.172,0.564425,-0.007908,,-7.908e-06,-7.9079999999999995
1421.2379999999998,0.56167,-0.007877,,-7.877000000000001e-06,-7.877000000000002
1421.3010000000002,0.558571,-0.007939,,-7.939e-06,-7.939
1421.3629999999998,0.5554720000000001,-0.008011,,-8.011e-06,-8.011000000000001
1421.4229999999998,0.552545,-0.008042,,-8.042e-06,-8.042
1421.484,0.549618,-0.008073,,-8.072999999999999e-06,-8.073
1421.5479999999998,0.546347,-0.008131999999999999,,-8.132000000000001e-06,-8.131999999999998
1421.611,0.5429039999999999,-0.008121,,-8.120999999999999e-06,-8.121
1421.6760000000002,0.539977,-0.008094,,-8.093999999999999e-06,-8.094000000000001
1421.737,0.53705,-0.008135,,-8.135e-06,-8.135
1421.8029999999999,0.5339510000000001,-0.008251999999999999,,-8.251999999999997e-06,-8.251999999999999
1421.865,0.53068,-0.008334999999999999,,-8.334999999999999e-06,-8.334999999999999
1421.931,0.527237,-0.008345,,-8.345e-06,-8.345
1421.995,0.524138,-0.00829,,-8.29e-06,-8.290000000000001
1422.058,0.521383,-0.008342,,-8.342e-06,-8.342
1422.122,0.518284,-0.008445000000000001,,-8.445000000000001e-06,-8.445
1422.183,0.515013,-0.008542000000000001,,-8.542e-06,-8.542000000000002
1422.244,0.512258,-0.008607,,-8.607e-06,-8.607000000000001
1422.307,0.508987,-0.00869,,-8.69e-06,-8.69
1422.37,0.5057159999999999,-0.008727,,-8.727e-06,-8.727
1422.434,0.502617,-0.008748,,-8.748e-06,-8.748000000000001
1422.495,0.499862,-0.008803,,-8.803e-06,-8.802999999999999
1422.557,0.496763,-0.008882,,-8.881999999999999e-06,-8.882
1422.619,0.494009,-0.008979000000000001,,-8.979000000000003e-06,-8.979000000000003
1422.682,0.49091,-0.009086,,-9.086e-06,-9.086
1422.745,0.487466,-0.00922,,-9.220000000000003e-06,-9.22
1422.807,0.484712,-0.009296,,-9.296e-06,-9.296
1422.871,0.481269,-0.00932,,-9.32e-06,-9.32
1422.932,0.47817,-0.009361,,-9.361e-06,-9.361
1422.994,0.475243,-0.009358,,-9.358e-06,-9.357999999999999
1423.056,0.472144,-0.009364,,-9.364e-06,-9.363999999999999
1423.119,0.4693890000000001,-0.009378,,-9.377999999999999e-06,-9.378
1423.182,0.46629,-0.009399,,-9.399e-06,-9.399
1423.245,0.463019,-0.009406,,-9.406e-06,-9.406
1423.306,0.45992,-0.009354,,-9.354e-06,-9.354
1423.37,0.456304,-0.009227,,-9.227e-06,-9.227
1423.431,0.45355,-0.009137,,-9.137e-06,-9.137
1423.491,0.4504510000000001,-0.009013,,-9.013e-06,-9.013
1423.5539999999999,0.447352,-0.008834,,-8.834e-06,-8.834
1423.6170000000002,0.444253,-0.008655,,-8.655e-06,-8.655
1423.6789999999999,0.441326,-0.0085,,-8.5e-06,-8.5
1423.741,0.438227,-0.008387,,-8.387000000000001e-06,-8.387
1423.8020000000001,0.435128,-0.00828,,-8.279999999999999e-06,-8.28
1423.865,0.432029,-0.008211,,-8.211e-06,-8.211
1423.93,0.428586,-0.008097,,-8.097e-06,-8.097000000000001
1423.99,0.425659,-0.008001000000000001,,-8.001000000000004e-06,-8.001000000000001
1424.0529999999999,0.4225600000000001,-0.007831999999999999,,-7.831999999999999e-06,-7.831999999999999
1424.118,0.419461,-0.007712,,-7.712e-06,-7.712000000000001
1424.182,0.416362,-0.007701,,-7.701e-06,-7.701
1424.243,0.413263,-0.0076700000000000015,,-7.670000000000001e-06,-7.670000000000001
1424.3039999999999,0.410336,-0.007633,,-7.633e-06,-7.632999999999999
1424.365,0.407409,-0.007608,,-7.608e-06,-7.608
1424.4260000000002,0.40431,-0.007576999999999999,,-7.5770000000000005e-06,-7.577000000000001
1424.489,0.401211,-0.007529000000000002,,-7.529000000000002e-06,-7.529000000000001
1424.5520000000001,0.398285,-0.0074709999999999985,,-7.4709999999999984e-06,-7.470999999999999
1424.615,0.395013,-0.007388,,-7.3879999999999986e-06,-7.388
1424.6770000000001,0.392087,-0.007367,,-7.367000000000001e-06,-7.367000000000001
1424.74,0.388988,-0.007388,,-7.3879999999999986e-06,-7.388
1424.8029999999999,0.385889,-0.00745,,-7.45e-06,-7.45
1424.866,0.382962,-0.007495,,-7.495e-06,-7.495
1424.9270000000001,0.379691,-0.007502,,-7.502e-06,-7.502000000000001
1424.989,0.376936,-0.007484,,-7.484e-06,-7.484
1425.0520000000001,0.373837,-0.007436,,-7.4360000000000005e-06,-7.436
1425.115,0.370738,-0.007405,,-7.405e-06,-7.405
1425.18,0.367811,-0.007456999999999998,,-7.456999999999998e-06,-7.456999999999999
1425.2420000000002,0.36454,-0.007515000000000002,,-7.515000000000002e-06,-7.5150000000000015
1425.305,0.361441,-0.007576999999999999,,-7.5770000000000005e-06,-7.577000000000001
1425.366,0.358514,-0.007595,,-7.595e-06,-7.595
1425.4270000000001,0.355587,-0.007626000000000002,,-7.626000000000001e-06,-7.626000000000001
1425.487,0.352661,-0.007653,,-7.653e-06,-7.653
1425.5479999999998,0.349734,-0.0076700000000000015,,-7.670000000000001e-06,-7.670000000000001
1425.61,0.346635,-0.007657,,-7.657e-06,-7.657
1425.671,0.343708,-0.007633,,-7.633e-06,-7.632999999999999
1425.733,0.340781,-0.007608,,-7.608e-06,-7.608
1425.799,0.33751,-0.007626000000000002,,-7.626000000000001e-06,-7.626000000000001
1425.861,0.334583,-0.0076739999999999985,,-7.674e-06,-7.673999999999999
1425.924,0.331312,-0.007739,,-7.739e-06,-7.739
1425.986,0.32821300000000003,-0.007756,,-7.756e-06,-7.756
1426.049,0.325286,-0.007743000000000002,,-7.743e-06,-7.742999999999999
1426.1170000000002,0.322015,-0.007639,,-7.639e-06,-7.638999999999999
1426.18,0.318744,-0.007708,,-7.708e-06,-7.707999999999998
1426.245,0.315645,-0.0078010000000000015,,-7.801e-06,-7.801000000000001
1426.309,0.312546,-0.007774,,-7.774e-06,-7.774
1426.37,0.30961900000000003,-0.0077810000000000015,,-7.781e-06,-7.7810000000000015
1426.432,0.30652,-0.007731999999999998,,-7.732e-06,-7.731999999999998
1426.495,0.303421,-0.007719,,-7.719e-06,-7.718999999999999
1426.557,0.30015,-0.0077459999999999985,,-7.746e-06,-7.745999999999999
1426.6229999999998,0.297051,-0.007863,,-7.862999999999999e-06,-7.8629999999999995
1426.6860000000001,0.293952,-0.007898,,-7.898000000000001e-06,-7.8980000000000015
1426.749,0.291025,-0.007884,,-7.884000000000001e-06,-7.8839999999999995
1426.809,0.288098,-0.00787,,-7.870000000000001e-06,-7.87
1426.872,0.284999,-0.007815,,-7.815e-06,-7.815
1426.9360000000001,0.28172800000000003,-0.007784,,-7.784e-06,-7.784
1426.9979999999998,0.278457,-0.007825,,-7.825e-06,-7.825
1427.059,0.275702,-0.007843000000000001,,-7.843000000000001e-06,-7.843000000000001
1427.13,0.272087,-0.00787,,-7.870000000000001e-06,-7.87
1427.192,0.269332,-0.007831999999999999,,-7.831999999999999e-06,-7.831999999999999
1427.255,0.265889,-0.007821999999999999,,-7.821999999999999e-06,-7.821999999999999
1427.317,0.26279,-0.007845999999999999,,-7.845999999999999e-06,-7.845999999999999
1427.378,0.259863,-0.007863,,-7.862999999999999e-06,-7.8629999999999995
1427.4389999999999,0.256936,-0.007887,,-7.887000000000001e-06,-7.8870000000000005
1427.503,0.253837,-0.007991,,-7.991e-06,-7.9910000000000005
1427.566,0.250566,-0.008046,,-8.045999999999999e-06,-8.046
1427.6329999999998,0.247639,-0.007939,,-7.939e-06,-7.939
1427.695,0.24454,-0.007932,,-7.932e-06,-7.931999999999999
1427.7579999999998,0.241441,-0.007956,,-7.956e-06,-7.955999999999999
1427.819,0.238342,-0.007984,,-7.984e-06,-7.984
1427.881,0.235243,-0.008059,,-8.059e-06,-8.059000000000001
1427.945,0.232144,-0.008128,,-8.127999999999999e-06,-8.128
1428.007,0.229218,-0.008139,,-8.139000000000001e-06,-8.139000000000001
1428.069,0.226119,-0.008131999999999999,,-8.132000000000001e-06,-8.131999999999998
1428.132,0.22302,-0.008097,,-8.097e-06,-8.097000000000001
1428.194,0.220093,-0.008073,,-8.072999999999999e-06,-8.073
1428.2579999999998,0.216994,-0.008084000000000001,,-8.084000000000001e-06,-8.084000000000001
1428.32,0.213723,-0.008159,,-8.159e-06,-8.158999999999999
1428.38,0.210624,-0.008194,,-8.194e-06,-8.193999999999999
1428.444,0.207697,-0.008283,,-8.283e-06,-8.283000000000001
1428.506,0.204598,-0.008331999999999999,,-8.332000000000001e-06,-8.331999999999999
1428.567,0.201499,-0.008352,,-8.352e-06,-8.352
1428.629,0.198572,-0.008366,,-8.366000000000001e-06,-8.366
1428.691,0.195645,-0.008366,,-8.366000000000001e-06,-8.366
1428.761,0.192202,-0.00839,,-8.39e-06,-8.39
1428.8220000000001,0.189103,-0.008468999999999999,,-8.469e-06,-8.469
1428.885,0.186176,-0.008565999999999999,,-8.565999999999999e-06,-8.565999999999999
1428.9479999999999,0.182905,-0.00861,,-8.609999999999999e-06,-8.61
1429.01,0.179978,-0.008634999999999999,,-8.634999999999998e-06,-8.634999999999998
1429.07,0.177051,-0.008683,,-8.683e-06,-8.683
1429.136,0.17378,-0.008631,,-8.631000000000001e-06,-8.631
1429.1989999999998,0.170853,-0.008695999999999999,,-8.696e-06,-8.696
1429.2620000000002,0.167754,-0.008803,,-8.803e-06,-8.802999999999999
1429.3239999999998,0.164655,-0.008912999999999999,,-8.913e-06,-8.912999999999998
1429.3870000000002,0.161556,-0.008981999999999999,,-8.981999999999996e-06,-8.982000000000001
1429.45,0.15828499999999998,-0.009013,,-9.013e-06,-9.013
1429.5120000000002,0.155359,-0.00902,,-9.02e-06,-9.02
1429.5729999999999,0.15243199999999998,-0.009072,,-9.072e-06,-9.072
1429.6370000000002,0.149161,-0.009086,,-9.086e-06,-9.086
1429.7,0.146234,-0.009185,,-9.185e-06,-9.185
1429.764,0.14313499999999998,-0.009334,,-9.333999999999999e-06,-9.334
1429.829,0.13986400000000002,-0.009447,,-9.447e-06,-9.447
1429.892,0.13659200000000002,-0.009488,,-9.488e-06,-9.488
1429.955,0.133493,-0.009506,,-9.506e-06,-9.506
1430.016,0.13056700000000002,-0.009568,,-9.567999999999999e-06,-9.568
1430.0770000000002,0.12781199999999998,-0.009643,,-9.642999999999999e-06,-9.642999999999999
1430.138,0.124713,-0.009719,,-9.719e-06,-9.719
1430.1979999999999,0.121786,-0.009791,,-9.791e-06,-9.791
1430.259,0.118687,-0.009878,,-9.878e-06,-9.878
1430.3220000000001,0.11576,-0.010022,,-1.0022e-05,-10.022
1430.385,0.11266099999999997,-0.010174,,-1.0174e-05,-10.174
1430.4470000000001,0.109562,-0.010298,,-1.0298e-05,-10.298
