time,potential,current1_mA,coll_current,current1,current1_muA
158.332,0.101643,-0.01778,,-1.778e-05,-17.78
158.389,0.09906,-0.017856,,-1.7856e-05,-17.855999999999998
158.445,0.095961,-0.017956,,-1.7956e-05,-17.956
158.503,0.093035,-0.018131,,-1.8131e-05,-18.131
158.562,0.090108,-0.018327,,-1.8327e-05,-18.327
158.618,0.087525,-0.018582,,-1.8582e-05,-18.582
158.673,0.085115,-0.018796,,-1.8795999999999998e-05,-18.796
158.72899999999998,0.08253200000000001,-0.018964,,-1.8964e-05,-18.964000000000002
158.789,0.079433,-0.019254,,-1.9254000000000002e-05,-19.254
158.846,0.076334,-0.019522,,-1.9522e-05,-19.522
158.904,0.07409600000000001,-0.020999,,-2.0999e-05,-20.999000000000002
158.961,0.07116900000000001,-0.021843,,-2.1843e-05,-21.843000000000004
159.018,0.068587,-0.021936,,-2.1935999999999998e-05,-21.936
159.075,0.066005,-0.022232,,-2.2231999999999997e-05,-22.232
159.13,0.063422,-0.022649,,-2.2649000000000006e-05,-22.649
159.185,0.060495000000000014,-0.02321,,-2.321e-05,-23.21
159.24,0.057913,-0.024019,,-2.4019e-05,-24.019000000000002
159.297,0.05533,-0.024963,,-2.4963e-05,-24.963
159.371,0.053436,-0.02352,,-2.352e-05,-23.52
159.428,0.054125,-0.017769999999999998,,-1.7769999999999998e-05,-17.769999999999996
159.498,0.055675,-0.014801,,-1.4801e-05,-14.800999999999998
159.555,0.057913,-0.013211,,-1.3211e-05,-13.210999999999999
159.612,0.05980700000000001,-0.011975,,-1.1975e-05,-11.975
159.671,0.062217,-0.011000000000000001,,-1.1e-05,-11.0
159.727,0.064455,-0.01026,,-1.026e-05,-10.26
159.784,0.066865,-0.00974,,-9.74e-06,-9.74
159.842,0.069276,-0.009385,,-9.385e-06,-9.385
159.901,0.07203,-0.009127,,-9.127000000000001e-06,-9.127
159.957,0.07495700000000001,-0.009006,,-9.006e-06,-9.006
160.014,0.078056,-0.008882,,-8.881999999999999e-06,-8.882
160.071,0.080983,-0.008768999999999999,,-8.768999999999999e-06,-8.768999999999998
160.127,0.083565,-0.008679000000000001,,-8.679000000000001e-06,-8.679
160.184,0.086492,-0.008655,,-8.655e-06,-8.655
160.241,0.08941900000000001,-0.008695999999999999,,-8.696e-06,-8.696
160.297,0.092002,-0.008748,,-8.748e-06,-8.748000000000001
160.35399999999998,0.095273,-0.008754999999999999,,-8.754999999999997e-06,-8.754999999999999
160.41,0.098199,-0.008703,,-8.703000000000001e-06,-8.703000000000001
160.467,0.100954,-0.008672,,-8.672000000000001e-06,-8.671999999999999
160.524,0.103881,-0.008683,,-8.683e-06,-8.683
160.582,0.106808,-0.008721,,-8.721e-06,-8.721
160.639,0.10939000000000003,-0.008783,,-8.782999999999999e-06,-8.783
160.695,0.11266099999999997,-0.008831,,-8.831e-06,-8.831
160.752,0.11576,-0.008814,,-8.813999999999999e-06,-8.814
160.809,0.118687,-0.008912999999999999,,-8.913e-06,-8.912999999999998
160.865,0.121098,-0.008834,,-8.834e-06,-8.834
160.922,0.124024,-0.00882,,-8.82e-06,-8.82
160.97899999999998,0.126607,-0.008838,,-8.837999999999999e-06,-8.838000000000003
161.03799999999998,0.12953399999999998,-0.008851000000000001,,-8.851e-06,-8.851
161.094,0.132977,-0.008876,,-8.876e-06,-8.876
161.15,0.135559,-0.00882,,-8.82e-06,-8.82
161.208,0.138658,-0.008789,,-8.789e-06,-8.789
161.269,0.141413,-0.00881,,-8.81e-06,-8.81
161.327,0.14468399999999998,-0.008783,,-8.782999999999999e-06,-8.783
161.386,0.147267,-0.008779,,-8.779e-06,-8.779
161.444,0.150194,-0.008796,,-8.796e-06,-8.796
161.5,0.152776,-0.008869,,-8.869000000000001e-06,-8.869
161.55700000000002,0.155875,-0.008927,,-8.927000000000001e-06,-8.927
161.614,0.15863,-0.008948000000000001,,-8.948000000000001e-06,-8.948
161.671,0.16172899999999998,-0.008917,,-8.917000000000001e-06,-8.917
161.726,0.16431099999999998,-0.008838,,-8.837999999999999e-06,-8.838000000000003
161.782,0.16706600000000002,-0.008848,,-8.847999999999999e-06,-8.847999999999999
161.841,0.16982,-0.008865000000000001,,-8.865e-06,-8.865000000000002
161.898,0.172747,-0.008917,,-8.917000000000001e-06,-8.917
161.954,0.175502,-0.008951,,-8.951000000000001e-06,-8.951
162.011,0.178429,-0.008924,,-8.924e-06,-8.924
162.06799999999998,0.181356,-0.008876,,-8.876e-06,-8.876
162.124,0.183938,-0.008848,,-8.847999999999999e-06,-8.847999999999999
162.179,0.186521,-0.00892,,-8.920000000000001e-06,-8.920000000000002
162.239,0.18962,-0.008912999999999999,,-8.913e-06,-8.912999999999998
162.296,0.192374,-0.008958,,-8.958000000000001e-06,-8.958
162.35299999999998,0.195473,-0.008948000000000001,,-8.948000000000001e-06,-8.948
162.409,0.198228,-0.008889,,-8.888999999999999e-06,-8.889
162.466,0.201155,-0.00881,,-8.81e-06,-8.81
162.525,0.204081,-0.008831,,-8.831e-06,-8.831
162.58100000000002,0.206664,-0.008841,,-8.841e-06,-8.841000000000001
162.637,0.209419,-0.008903,,-8.903e-06,-8.902999999999997
162.69299999999998,0.212001,-0.008907,,-8.907000000000001e-06,-8.907
162.75,0.2151,-0.008841,,-8.841e-06,-8.841000000000001
162.808,0.217855,-0.008779,,-8.779e-06,-8.779
162.865,0.22060900000000006,-0.008703,,-8.703000000000001e-06,-8.703000000000001
162.923,0.223536,-0.008669,,-8.669e-06,-8.669
162.97899999999998,0.226463,-0.008709999999999999,,-8.71e-06,-8.709999999999999
163.035,0.229045,-0.008754999999999999,,-8.754999999999997e-06,-8.754999999999999
163.093,0.232144,-0.008727,,-8.727e-06,-8.727
163.149,0.234899,-0.008634999999999999,,-8.634999999999998e-06,-8.634999999999998
163.20600000000002,0.237654,-0.008542000000000001,,-8.542e-06,-8.542000000000002
163.261,0.240408,-0.008520999999999999,,-8.520999999999999e-06,-8.520999999999999
163.316,0.243163,-0.008579,,-8.579e-06,-8.579
163.375,0.24609,-0.008562,,-8.562e-06,-8.562000000000001
163.43200000000002,0.248845,-0.008545,,-8.545e-06,-8.545
163.489,0.251599,-0.008476000000000001,,-8.476000000000003e-06,-8.476
163.545,0.254182,-0.00839,,-8.39e-06,-8.39
163.6,0.257281,-0.008397,,-8.397000000000001e-06,-8.397
163.658,0.260035,-0.008411,,-8.411e-06,-8.411
163.715,0.26279,-0.008431000000000001,,-8.431000000000001e-06,-8.431000000000001
163.775,0.265717,-0.008407,,-8.407000000000001e-06,-8.407
163.832,0.268644,-0.00838,,-8.380000000000001e-06,-8.38
163.89,0.27139800000000003,-0.008328,,-8.327999999999999e-06,-8.328000000000001
163.94799999999998,0.274325,-0.008263,,-8.263e-06,-8.263
164.007,0.277252,-0.008208,,-8.208e-06,-8.208
164.06400000000002,0.280179,-0.008135,,-8.135e-06,-8.135
164.122,0.283106,-0.008104,,-8.103999999999999e-06,-8.104
164.179,0.28586,-0.008108,,-8.108000000000001e-06,-8.107999999999999
164.237,0.288787,-0.008101,,-8.101000000000001e-06,-8.101
164.293,0.29137,-0.008108,,-8.108000000000001e-06,-8.107999999999999
164.351,0.294124,-0.008048999999999999,,-8.048999999999999e-06,-8.049
164.41,0.297223,-0.007998,,-7.998e-06,-7.997999999999999
164.468,0.299978,-0.007922,,-7.922e-06,-7.9220000000000015
164.524,0.30290500000000004,-0.007815,,-7.815e-06,-7.815
164.581,0.305659,-0.0077810000000000015,,-7.781e-06,-7.7810000000000015
164.642,0.308586,-0.007736,,-7.736e-06,-7.736000000000001
164.703,0.311685,-0.007653,,-7.653e-06,-7.653
164.773,0.315128,-0.007715,,-7.715e-06,-7.715000000000002
164.829,0.318227,-0.008407,,-8.407000000000001e-06,-8.407
164.887,0.321154,-0.008331999999999999,,-8.332000000000001e-06,-8.331999999999999
164.945,0.323909,-0.008066,,-8.066e-06,-8.066
165.003,0.326664,-0.007918000000000001,,-7.918000000000001e-06,-7.918000000000001
165.06400000000002,0.32976300000000003,-0.00777,,-7.77e-06,-7.77
165.12099999999998,0.332689,-0.007705,,-7.705e-06,-7.705
165.178,0.3351,-0.007677,,-7.677000000000001e-06,-7.6770000000000005
165.234,0.338199,-0.007626000000000002,,-7.626000000000001e-06,-7.626000000000001
165.28900000000002,0.340781,-0.007467,,-7.4670000000000015e-06,-7.467
165.34400000000002,0.343364,-0.007347,,-7.347e-06,-7.347
165.40099999999998,0.346118,-0.007305,,-7.304999999999999e-06,-7.305
165.46,0.349217,-0.007264,,-7.2639999999999986e-06,-7.2639999999999985
165.517,0.351972,-0.007254000000000002,,-7.254000000000001e-06,-7.254000000000001
165.57299999999998,0.354554,-0.007192000000000001,,-7.192000000000002e-06,-7.192
165.63,0.357309,-0.007068000000000001,,-7.068000000000002e-06,-7.0680000000000005
165.688,0.360408,-0.006947,,-6.9470000000000006e-06,-6.947
165.74400000000003,0.362991,-0.006854000000000001,,-6.854000000000002e-06,-6.854000000000001
165.799,0.365745,-0.006865,,-6.865e-06,-6.865
165.858,0.368672,-0.006809999999999999,,-6.809999999999998e-06,-6.81
165.916,0.371427,-0.006779,,-6.7790000000000015e-06,-6.779
165.977,0.374698,-0.006696,,-6.696e-06,-6.696000000000001
166.03400000000002,0.37728,-0.006631000000000001,,-6.631000000000001e-06,-6.631
166.092,0.380379,-0.006527,,-6.527e-06,-6.527
166.149,0.382962,-0.006372,,-6.372e-06,-6.372000000000001
166.207,0.386061,-0.006255,,-6.255e-06,-6.255
166.263,0.388643,-0.006179,,-6.179e-06,-6.1789999999999985
166.32,0.39157,-0.006176,,-6.176e-06,-6.176
166.37599999999998,0.394153,-0.006138,,-6.1379999999999995e-06,-6.138
166.433,0.397252,-0.0060420000000000005,,-6.042000000000002e-06,-6.042000000000002
166.49,0.400178,-0.005894,,-5.894e-06,-5.894
166.547,0.402933,-0.005752,,-5.752e-06,-5.752000000000001
166.604,0.405516,-0.005656,,-5.656000000000001e-06,-5.6560000000000015
166.66,0.40827,-0.005618,,-5.6179999999999986e-06,-5.6179999999999986
166.71599999999998,0.411197,-0.00556,,-5.56e-06,-5.56
166.77200000000002,0.413952,-0.005415,,-5.415e-06,-5.415
166.829,0.416878,-0.005236,,-5.236e-06,-5.236000000000001
166.887,0.419461,-0.005081,,-5.081e-06,-5.081
166.94299999999998,0.422043,-0.004964,,-4.9639999999999986e-06,-4.964
167.002,0.424626,-0.004833,,-4.8329999999999985e-06,-4.832999999999998
167.06,0.427725,-0.0047090000000000005,,-4.709e-06,-4.7090000000000005
167.12099999999998,0.430652,-0.004496,,-4.496e-06,-4.496
167.17700000000002,0.433579,-0.004361,,-4.361e-06,-4.3610000000000015
167.234,0.436505,-0.004158,,-4.158e-06,-4.158
167.291,0.439432,-0.00391,,-3.9100000000000015e-06,-3.91
167.34599999999998,0.441843,-0.003666,,-3.666e-06,-3.666
167.40099999999998,0.444253,-0.0035280000000000008,,-3.5280000000000008e-06,-3.5280000000000005
167.459,0.44718,-0.0033520000000000004,,-3.3520000000000007e-06,-3.3520000000000003
167.516,0.4501060000000001,-0.00316,,-3.16e-06,-3.16
167.57299999999998,0.452861,-0.002932,,-2.932e-06,-2.932
167.62900000000002,0.455788,-0.00266,,-2.66e-06,-2.66
167.68400000000003,0.458198,-0.002485,,-2.4850000000000003e-06,-2.4850000000000003
167.74200000000002,0.4607810000000001,-0.00233,,-2.33e-06,-2.33
167.8,0.463708,-0.002206,,-2.206e-06,-2.206
167.86599999999999,0.467151,-0.001989,,-1.989e-06,-1.989
167.923,0.4699060000000001,-0.001903,,-1.903e-06,-1.903
167.98,0.472488,-0.001872,,-1.8719999999999998e-06,-1.872
168.044,0.475759,-0.0017239999999999998,,-1.7240000000000001e-06,-1.7239999999999998
168.101,0.478686,-0.00172,,-1.72e-06,-1.72
168.158,0.481613,-0.001727,,-1.727e-06,-1.7269999999999999
168.21400000000003,0.484712,-0.001703,,-1.703e-06,-1.703
168.271,0.487466,-0.0016579999999999998,,-1.6579999999999996e-06,-1.6579999999999997
168.328,0.490221,-0.00162,,-1.62e-06,-1.62
168.38299999999998,0.492976,-0.001651,,-1.6510000000000004e-06,-1.651
168.44,0.495903,-0.0017170000000000002,,-1.7170000000000005e-06,-1.7170000000000003
168.497,0.498829,-0.001775,,-1.7750000000000004e-06,-1.775
168.554,0.5019279999999999,-0.001775,,-1.7750000000000004e-06,-1.775
168.609,0.5045109999999999,-0.00172,,-1.72e-06,-1.72
168.672,0.507782,-0.001755,,-1.755e-06,-1.755
168.73,0.510709,-0.0017690000000000004,,-1.769e-06,-1.769
168.799,0.51398,-0.001889,,-1.889e-06,-1.889
168.859,0.516907,-0.00192,,-1.92e-06,-1.92
168.916,0.5200060000000001,-0.001927,,-1.927e-06,-1.927
168.97299999999998,0.523105,-0.001889,,-1.889e-06,-1.889
169.02900000000002,0.525859,-0.001803,,-1.803e-06,-1.803
169.09099999999998,0.528614,-0.0017579999999999998,,-1.7579999999999995e-06,-1.7579999999999998
169.14700000000002,0.5315409999999999,-0.001731,,-1.7309999999999996e-06,-1.731
169.205,0.534296,-0.001703,,-1.703e-06,-1.703
169.265,0.537567,-0.0016760000000000002,,-1.676e-06,-1.6760000000000002
169.326,0.5404939999999999,-0.001631,,-1.631e-06,-1.6309999999999998
169.388,0.543593,-0.00161,,-1.61e-06,-1.61
169.44400000000002,0.546175,-0.001572,,-1.572e-06,-1.5719999999999998
169.49900000000002,0.54893,-0.001603,,-1.6030000000000002e-06,-1.6030000000000002
169.554,0.552029,-0.001565,,-1.565e-06,-1.565
169.61,0.554783,-0.001452,,-1.4519999999999998e-06,-1.452
169.667,0.557366,-0.001379,,-1.379e-06,-1.379
169.726,0.560293,-0.001317,,-1.3169999999999998e-06,-1.317
169.782,0.562875,-0.001324,,-1.3240000000000002e-06,-1.324
169.83900000000003,0.565802,-0.0013310000000000002,,-1.331e-06,-1.3310000000000002
169.896,0.568729,-0.001314,,-1.314e-06,-1.314
169.951,0.571483,-0.001204,,-1.204e-06,-1.204
170.007,0.574066,-0.001111,,-1.111e-06,-1.111
170.063,0.576821,-0.00109,,-1.09e-06,-1.09
170.12,0.579575,-0.001094,,-1.0939999999999998e-06,-1.094
170.176,0.5825020000000001,-0.001097,,-1.097e-06,-1.0970000000000002
170.233,0.585429,-0.001039,,-1.0390000000000001e-06,-1.0390000000000001
170.29,0.588356,-0.000949,,-9.49e-07,-0.9490000000000001
170.34599999999998,0.590766,-0.000877,,-8.769999999999998e-07,-0.877
170.40200000000002,0.593521,-0.000877,,-8.769999999999998e-07,-0.877
170.459,0.596275,-0.0008699999999999999,,-8.699999999999998e-07,-0.8699999999999999
170.516,0.599374,-0.000849,,-8.49e-07,-0.8490000000000001
170.574,0.6024729999999999,-0.000798,,-7.979999999999999e-07,-0.7979999999999999
170.63099999999997,0.605228,-0.000739,,-7.389999999999998e-07,-0.7390000000000001
170.68900000000002,0.6078100000000001,-0.000698,,-6.979999999999999e-07,-0.6980000000000001
170.745,0.610737,-0.000687,,-6.87e-07,-0.687
170.804,0.613492,-0.000711,,-7.110000000000002e-07,-0.7110000000000001
170.87,0.61728,-0.000753,,-7.529999999999999e-07,-0.753
170.93,0.620034,-0.000763,,-7.629999999999999e-07,-0.763
170.988,0.622961,-0.000736,,-7.359999999999999e-07,-0.736
171.043,0.625199,-0.000763,,-7.629999999999999e-07,-0.763
171.1,0.6282979999999999,-0.0008150000000000001,,-8.15e-07,-0.8150000000000001
171.158,0.631225,-0.0008529999999999999,,-8.529999999999998e-07,-0.8529999999999999
171.215,0.634152,-0.000866,,-8.659999999999999e-07,-0.866
171.271,0.637079,-0.0008179999999999999,,-8.179999999999998e-07,-0.818
171.328,0.639833,-0.000784,,-7.839999999999998e-07,-0.784
171.386,0.642588,-0.000784,,-7.839999999999998e-07,-0.784
171.442,0.645171,-0.0008289999999999999,,-8.289999999999998e-07,-0.8289999999999998
171.497,0.648097,-0.0008939999999999998,,-8.939999999999998e-07,-0.8939999999999999
171.555,0.6510239999999999,-0.0008939999999999998,,-8.939999999999998e-07,-0.8939999999999999
171.611,0.654123,-0.000842,,-8.419999999999998e-07,-0.8420000000000001
171.668,0.656878,-0.000791,,-7.909999999999999e-07,-0.7909999999999999
171.72400000000002,0.65946,-0.000798,,-7.979999999999999e-07,-0.7979999999999999
171.78099999999998,0.662387,-0.0008349999999999999,,-8.349999999999998e-07,-0.835
171.83900000000003,0.66497,-0.00086,,-8.6e-07,-0.86
171.896,0.668241,-0.0008529999999999999,,-8.529999999999998e-07,-0.8529999999999999
171.952,0.671168,-0.000722,,-7.22e-07,-0.722
172.01,0.673578,-0.000532,,-5.32e-07,-0.532
172.067,0.67616,-0.000216,,-2.1600000000000005e-07,-0.21600000000000005
172.12400000000002,0.6789149999999999,0.00016,,1.6e-07,0.16
172.18,0.6814979999999999,0.000504,,5.04e-07,0.504
172.237,0.6842520000000001,0.000852,,8.520000000000001e-07,0.852
172.294,0.6868350000000001,0.001165,,1.165e-06,1.165
172.35,0.689761,0.001406,,1.4060000000000002e-06,1.406
172.407,0.692172,0.001441,,1.4409999999999998e-06,1.4409999999999998
172.46400000000003,0.694926,0.001262,,1.262e-06,1.2619999999999998
172.521,0.697853,0.000952,,9.520000000000001e-07,0.9520000000000001
172.576,0.700952,0.000628,,6.28e-07,0.628
172.632,0.703879,0.0004280000000000001,,4.280000000000001e-07,0.4280000000000001
172.69,0.706806,0.000232,,2.32e-07,0.232
172.747,0.709733,8.7e-05,,8.7e-08,0.087
172.808,0.712832,-8.499999999999999e-05,,-8.5e-08,-0.08499999999999999
172.864,0.715414,-0.000195,,-1.95e-07,-0.195
172.919,0.718169,-0.00035,,-3.5e-07,-0.35
172.976,0.721268,-0.000439,,-4.39e-07,-0.439
173.03400000000002,0.724367,-0.000453,,-4.53e-07,-0.45299999999999996
173.09099999999998,0.727122,-0.0004190000000000001,,-4.19e-07,-0.419
173.149,0.7300479999999999,-0.000374,,-3.74e-07,-0.3740000000000001
173.207,0.732975,-0.000326,,-3.2600000000000003e-07,-0.326
173.265,0.73573,-0.000278,,-2.7800000000000003e-07,-0.278
173.321,0.738657,-0.000281,,-2.81e-07,-0.281
173.377,0.7414109999999999,-0.00027400000000000005,,-2.7400000000000004e-07,-0.27399999999999997
173.43400000000003,0.744166,-0.000192,,-1.92e-07,-0.192
173.489,0.747265,-2.3e-05,,-2.2999999999999998e-08,-0.023
173.544,0.7495029999999999,9.8e-05,,9.8e-08,0.098
173.6,0.75243,0.000149,,1.49e-07,0.149
173.658,0.755185,0.00022200000000000006,,2.2200000000000006e-07,0.22200000000000006
173.715,0.758111,0.00031800000000000003,,3.18e-07,0.318
173.77200000000002,0.7608659999999999,0.000476,,4.7600000000000003e-07,0.47600000000000003
173.829,0.7634489999999999,0.000666,,6.660000000000001e-07,0.6659999999999999
173.885,0.766031,0.0008380000000000001,,8.380000000000002e-07,0.8380000000000001
173.942,0.768786,0.000948,,9.48e-07,0.948
173.997,0.77154,0.001,,1e-06,1.0
174.053,0.7739510000000001,0.001144,,1.144e-06,1.144
174.11,0.776877,0.001351,,1.3509999999999999e-06,1.351
174.167,0.7798039999999999,0.001544,,1.544e-06,1.544
174.22400000000002,0.782559,0.0016989999999999998,,1.6989999999999995e-06,1.6989999999999998
174.282,0.785141,0.001812,,1.812e-06,1.8119999999999998
174.33900000000003,0.787552,0.001895,,1.895e-06,1.895
174.396,0.790651,0.001998,,1.998e-06,1.998
174.453,0.793405,0.002133,,2.133e-06,2.133
174.511,0.7961600000000001,0.002301,,2.301e-06,2.301
174.56799999999998,0.7989149999999999,0.00248,,2.48e-06,2.48
174.625,0.801497,0.002625,,2.6250000000000003e-06,2.625
174.68099999999998,0.8042520000000001,0.002691,,2.691e-06,2.6910000000000003
174.737,0.8070069999999999,0.002718,,2.718e-06,2.718
174.793,0.809589,0.002821,,2.821e-06,2.821
174.84900000000002,0.812516,0.002983,,2.983e-06,2.983
174.90599999999998,0.8152699999999999,0.003118,,3.118e-06,3.1180000000000003
174.963,0.8178529999999999,0.003197,,3.197e-06,3.197
175.025,0.82078,0.003279,,3.279e-06,3.279
175.081,0.823534,0.003321,,3.321e-06,3.321
175.137,0.8262889999999999,0.003321,,3.321e-06,3.321
175.192,0.829044,0.003407,,3.407e-06,3.407
175.24900000000002,0.8317979999999999,0.0035310000000000007,,3.531e-06,3.531
175.30700000000002,0.8345530000000001,0.003627,,3.6270000000000006e-06,3.6270000000000007
175.363,0.8373079999999999,0.003686,,3.6860000000000004e-06,3.6860000000000004
175.42,0.8402350000000001,0.003689,,3.6889999999999997e-06,3.6889999999999996
175.477,0.842989,0.003689,,3.6889999999999997e-06,3.6889999999999996
175.533,0.845916,0.003744,,3.7439999999999996e-06,3.744
175.58900000000003,0.848671,0.003865,,3.865e-06,3.865
175.644,0.851253,0.003961,,3.961e-06,3.961
175.701,0.853836,0.003961,,3.961e-06,3.961
175.75799999999998,0.8567620000000001,0.003958,,3.958e-06,3.958
175.815,0.8596889999999999,0.003971,,3.971000000000001e-06,3.971
175.872,0.8624440000000001,0.00403,,4.03e-06,4.0299999999999985
175.929,0.8651989999999999,0.004137,,4.1369999999999995e-06,4.1370000000000005
175.987,0.868125,0.004215999999999999,,4.215999999999998e-06,4.215999999999998
176.043,0.8708799999999999,0.00425,,4.25e-06,4.25
176.09900000000002,0.8734629999999999,0.004215999999999999,,4.215999999999998e-06,4.215999999999998
176.155,0.876389,0.004212,,4.212e-06,4.212
176.21200000000002,0.879144,0.004278,,4.278e-06,4.2780000000000005
176.27,0.882243,0.004357,,4.357e-06,4.356999999999998
176.328,0.884998,0.004436,,4.436e-06,4.436
176.386,0.8877520000000001,0.004502,,4.502e-06,4.502
176.44299999999998,0.8905069999999999,0.004584,,4.5840000000000005e-06,4.5840000000000005
176.49900000000002,0.889474,0.002777,,2.777e-06,2.7769999999999997
176.55599999999998,0.8877520000000001,0.001995,,1.995e-06,1.995
176.611,0.8858590000000001,0.001747,,1.747e-06,1.747
