time,potential,current1_mA,coll_current,current1,current1_muA
1380.3010000000002,0.879316,0.000452,,4.52e-07,0.452
1380.362,0.876906,0.000346,,3.46e-07,0.34600000000000003
1380.4229999999998,0.874323,0.000211,,2.11e-07,0.211
1380.486,0.8719129999999999,0.000173,,1.73e-07,0.173
1380.5479999999998,0.868986,9.8e-05,,9.8e-08,0.098
1380.611,0.866232,5e-06,,5e-09,0.005
1380.672,0.863649,-9.9e-05,,-9.9e-08,-0.099
1380.734,0.860722,-0.000219,,-2.19e-07,-0.219
1380.796,0.8579680000000001,-0.00035,,-3.5e-07,-0.35
1380.86,0.8550409999999999,-0.00046,,-4.6e-07,-0.46
1380.921,0.8522860000000001,-0.000515,,-5.15e-07,-0.515
1380.991,0.849015,-0.00047,,-4.700000000000001e-07,-0.47
1381.0539999999999,0.846088,-0.000612,,-6.12e-07,-0.612
1381.1170000000002,0.842989,-0.000725,,-7.249999999999998e-07,-0.725
1381.18,0.8400620000000001,-0.0008150000000000001,,-8.15e-07,-0.8150000000000001
1381.243,0.8371360000000001,-0.00086,,-8.6e-07,-0.86
1381.3039999999999,0.834209,-0.000891,,-8.909999999999999e-07,-0.8909999999999999
1381.365,0.83111,-0.000942,,-9.42e-07,-0.942
1381.4260000000002,0.828355,-0.001004,,-1.0039999999999998e-06,-1.004
1381.487,0.825256,-0.001063,,-1.0630000000000002e-06,-1.0630000000000002
1381.55,0.822501,-0.001125,,-1.1249999999999998e-06,-1.125
1381.612,0.8194020000000001,-0.001242,,-1.242e-06,-1.242
1381.674,0.816476,-0.001342,,-1.3419999999999998e-06,-1.3419999999999999
1381.735,0.813549,-0.001455,,-1.455e-06,-1.455
1381.797,0.81045,-0.00161,,-1.61e-06,-1.61
1381.861,0.807523,-0.001727,,-1.727e-06,-1.7269999999999999
1381.9229999999998,0.804424,-0.001806,,-1.806e-06,-1.806
1381.987,0.801325,-0.001848,,-1.848e-06,-1.848
1382.05,0.7983979999999999,-0.001968,,-1.968e-06,-1.968
1382.112,0.7956439999999999,-0.002123,,-2.1230000000000003e-06,-2.123
1382.174,0.7925449999999999,-0.002316,,-2.316e-06,-2.316
1382.237,0.789618,-0.002502,,-2.502e-06,-2.502
1382.299,0.786691,-0.002691,,-2.691e-06,-2.6910000000000003
1382.364,0.783592,-0.002822,,-2.822e-06,-2.822
1382.4270000000001,0.7806649999999999,-0.002929,,-2.929e-06,-2.929
1382.496,0.777738,-0.003091,,-3.091e-06,-3.091
1382.5620000000001,0.7746390000000001,-0.003439,,-3.4389999999999996e-06,-3.4389999999999996
1382.625,0.771368,-0.0035280000000000008,,-3.5280000000000008e-06,-3.5280000000000005
1382.6879999999999,0.768441,-0.003714,,-3.714e-06,-3.714
1382.749,0.765687,-0.003989,,-3.988999999999999e-06,-3.989
1382.8120000000001,0.76276,-0.004282,,-4.282e-06,-4.282
1382.874,0.760177,-0.004561,,-4.561e-06,-4.561
1382.9370000000001,0.757078,-0.004861,,-4.8610000000000006e-06,-4.861000000000001
1383.001,0.753979,-0.005115,,-5.115e-06,-5.114999999999998
1383.065,0.751053,-0.005208,,-5.208e-06,-5.207999999999999
1383.128,0.7481260000000001,-0.005474000000000001,,-5.474e-06,-5.474
1383.191,0.745199,-0.005642,,-5.642e-06,-5.642
1383.255,0.7421,-0.005914,,-5.914e-06,-5.914
1383.318,0.739345,-0.006169,,-6.169e-06,-6.169
1383.381,0.736246,-0.006383,,-6.383e-06,-6.382999999999999
1383.442,0.7333189999999999,-0.006495999999999999,,-6.4959999999999985e-06,-6.496
1383.504,0.7303930000000001,-0.006555,,-6.555e-06,-6.555
1383.5639999999999,0.727466,-0.006861,,-6.861e-06,-6.861000000000001
1383.6270000000002,0.724367,-0.00693,,-6.93e-06,-6.93
1383.6889999999999,0.721612,-0.007133,,-7.1329999999999985e-06,-7.132999999999999
1383.754,0.718513,-0.007292,,-7.292000000000001e-06,-7.292000000000001
1383.817,0.715414,-0.007581,,-7.581e-06,-7.581
1383.88,0.712487,-0.007901,,-7.901e-06,-7.901
1383.942,0.709388,-0.008073,,-8.072999999999999e-06,-8.073
1384.003,0.7062890000000001,-0.008342,,-8.342e-06,-8.342
1384.0639999999999,0.70319,-0.008641,,-8.640999999999999e-06,-8.641
1384.125,0.700264,-0.00891,,-8.91e-06,-8.91
1384.1879999999999,0.6971649999999999,-0.009303,,-9.302999999999999e-06,-9.302999999999999
1384.249,0.6944100000000001,-0.00963,,-9.63e-06,-9.63
1384.31,0.691311,-0.010046,,-1.0046e-05,-10.046
1384.372,0.688384,-0.010322,,-1.0322e-05,-10.322000000000001
1384.434,0.685285,-0.010552,,-1.0551999999999997e-05,-10.552
1384.4979999999998,0.68167,-0.010494,,-1.0494000000000002e-05,-10.494000000000002
1384.5610000000001,0.678054,-0.010215,,-1.0215e-05,-10.215
1384.6229999999998,0.674439,-0.009843,,-9.842999999999999e-06,-9.843000000000002
1384.685,0.670995,-0.009561,,-9.561e-06,-9.561
1384.751,0.66738,-0.009423,,-9.423e-06,-9.423
1384.8120000000001,0.664453,-0.009444,,-9.444e-06,-9.444
1384.874,0.66101,-0.009506,,-9.506e-06,-9.506
1384.935,0.6579109999999999,-0.009595,,-9.595e-06,-9.595
1384.999,0.654467,-0.009698,,-9.698e-06,-9.698
1385.0610000000001,0.6510239999999999,-0.009764,,-9.764e-06,-9.764
1385.1229999999998,0.647753,-0.009833,,-9.832999999999999e-06,-9.833
1385.185,0.644482,-0.009843,,-9.842999999999999e-06,-9.843000000000002
1385.247,0.641383,-0.009867,,-9.867e-06,-9.867
1385.309,0.638284,-0.009936,,-9.936e-06,-9.936
1385.371,0.635357,-0.009998,,-9.998e-06,-9.998
1385.434,0.632258,-0.010081,,-1.0081e-05,-10.081
1385.495,0.629159,-0.010198,,-1.0198e-05,-10.198
1385.558,0.625888,-0.010301,,-1.0301000000000004e-05,-10.301000000000002
1385.62,0.622617,-0.010387,,-1.0387e-05,-10.387
1385.683,0.619518,-0.010428,,-1.0428e-05,-10.428
1385.745,0.616247,-0.010466,,-1.0466e-05,-10.466
1385.807,0.61332,-0.010508,,-1.0508e-05,-10.508
1385.869,0.610221,-0.010546,,-1.0545999999999999e-05,-10.546
1385.9289999999999,0.607122,-0.010614,,-1.0614e-05,-10.614
1385.99,0.6041949999999999,-0.010676,,-1.0676e-05,-10.675999999999998
1386.0529999999999,0.601268,-0.010756,,-1.0755999999999998e-05,-10.755999999999998
1386.115,0.598169,-0.010828,,-1.0828e-05,-10.828
1386.1779999999999,0.595242,-0.010897,,-1.0897e-05,-10.897
1386.24,0.591799,-0.010907,,-1.0907e-05,-10.907
1386.3020000000001,0.5887,-0.010973,,-1.0973e-05,-10.972999999999999
1386.365,0.585773,-0.011004,,-1.1004000000000002e-05,-11.004000000000001
1386.425,0.582674,-0.011055,,-1.1054999999999997e-05,-11.055
1386.486,0.579575,-0.011045,,-1.1045000000000004e-05,-11.045000000000002
1386.5479999999998,0.576476,-0.011028,,-1.1028e-05,-11.027999999999999
1386.611,0.573549,-0.01099,,-1.099e-05,-10.99
1386.6729999999998,0.57045,-0.011072,,-1.1072e-05,-11.072
1386.736,0.567351,-0.011183,,-1.1183e-05,-11.183
1386.797,0.564425,-0.011245,,-1.1245e-05,-11.245
1386.859,0.561326,-0.011296,,-1.1295999999999997e-05,-11.296
1386.92,0.558227,-0.011331,,-1.1330999999999999e-05,-11.331
1386.981,0.5553,-0.011355,,-1.1355e-05,-11.355
1387.0439999999999,0.552029,-0.011341,,-1.1340999999999999e-05,-11.341
1387.105,0.54893,-0.011396,,-1.1395999999999999e-05,-11.396
1387.172,0.5458310000000001,-0.011413,,-1.1413e-05,-11.413
1387.236,0.5429039999999999,-0.011503,,-1.1503e-05,-11.503
1387.2979999999998,0.539633,-0.011592,,-1.1592e-05,-11.592
1387.361,0.5365340000000001,-0.011675,,-1.1675e-05,-11.675
1387.424,0.533263,-0.011692,,-1.1692e-05,-11.692
1387.487,0.5303359999999999,-0.011702,,-1.1702e-05,-11.701999999999998
1387.549,0.527237,-0.011764,,-1.1764000000000001e-05,-11.764000000000001
1387.61,0.52431,-0.01182,,-1.182e-05,-11.82
1387.671,0.521383,-0.011885,,-1.1885e-05,-11.885
1387.735,0.518284,-0.012033,,-1.2033e-05,-12.033
1387.797,0.515357,-0.012157,,-1.2157e-05,-12.157
1387.86,0.5120859999999999,-0.012267,,-1.2267e-05,-12.267000000000001
1387.922,0.508987,-0.012357,,-1.2357e-05,-12.357000000000001
1387.985,0.505888,-0.012391,,-1.2391e-05,-12.390999999999998
1388.0479999999998,0.502789,-0.01246,,-1.246e-05,-12.46
1388.11,0.499862,-0.01255,,-1.255e-05,-12.55
1388.182,0.4962470000000001,-0.012787,,-1.2787e-05,-12.787
1388.255,0.492976,-0.012866,,-1.2865999999999997e-05,-12.866
1388.32,0.489532,-0.013041999999999998,,-1.3041999999999996e-05,-13.041999999999998
1388.382,0.486261,-0.013128,,-1.3128e-05,-13.128
1388.445,0.483335,-0.013204,,-1.3204000000000001e-05,-13.204
1388.507,0.480408,-0.013259,,-1.3259000000000001e-05,-13.259
1388.569,0.477309,-0.013311000000000002,,-1.3311000000000004e-05,-13.311000000000002
1388.632,0.474382,-0.013369,,-1.3369e-05,-13.369000000000002
1388.695,0.471455,-0.013455000000000002,,-1.3455000000000002e-05,-13.455000000000002
1388.756,0.468184,-0.013496,,-1.3496e-05,-13.495999999999999
1388.819,0.465085,-0.013527,,-1.3527e-05,-13.527
1388.8829999999998,0.4618140000000001,-0.013496,,-1.3496e-05,-13.495999999999999
1388.945,0.458543,-0.013431,,-1.3430999999999999e-05,-13.431
1389.006,0.455444,-0.013328,,-1.3328e-05,-13.328
1389.07,0.452345,-0.0132,,-1.32e-05,-13.2
1389.132,0.449418,-0.01309,,-1.3090000000000003e-05,-13.090000000000002
1389.193,0.446663,-0.01299,,-1.299e-05,-12.99
1389.256,0.443392,-0.012946,,-1.2946e-05,-12.946000000000002
1389.319,0.440121,-0.01288,,-1.288e-05,-12.88
1389.382,0.437022,-0.01278,,-1.278e-05,-12.78
1389.4489999999998,0.433406,-0.012556,,-1.2556e-05,-12.556
1389.511,0.430652,-0.012446,,-1.2446e-05,-12.445999999999998
1389.5729999999999,0.427553,-0.012391,,-1.2391e-05,-12.390999999999998
1389.634,0.424454,-0.012305,,-1.2305e-05,-12.305
1389.6970000000001,0.421527,-0.012312,,-1.2312e-05,-12.312000000000001
1389.761,0.418256,-0.012295,,-1.2295e-05,-12.295
1389.8270000000002,0.4149850000000001,-0.012123,,-1.2122999999999999e-05,-12.123
1389.888,0.412058,-0.012119,,-1.2119e-05,-12.119000000000002
1389.954,0.408787,-0.012133,,-1.2133e-05,-12.133
1390.0179999999998,0.405688,-0.012174,,-1.2174e-05,-12.174000000000001
1390.08,0.402589,-0.012205,,-1.2205e-05,-12.205
1390.1470000000002,0.39949,-0.012095,,-1.2095e-05,-12.095
1390.2089999999998,0.396391,-0.012085,,-1.2085e-05,-12.085
1390.271,0.393464,-0.012109,,-1.2109e-05,-12.109000000000002
1390.3339999999998,0.390365,-0.012171,,-1.2171e-05,-12.171
1390.394,0.387266,-0.012195,,-1.2195e-05,-12.195
1390.457,0.384167,-0.012278,,-1.2278e-05,-12.277999999999999
1390.521,0.380896,-0.012326,,-1.2325999999999999e-05,-12.325999999999999
1390.5829999999999,0.378141,-0.012346,,-1.2345999999999998e-05,-12.345999999999998
1390.645,0.375214,-0.012333,,-1.2333e-05,-12.333
1390.7079999999999,0.371943,-0.01235,,-1.235e-05,-12.35
1390.771,0.369016,-0.012391,,-1.2391e-05,-12.390999999999998
1390.8329999999999,0.365917,-0.012463,,-1.2462999999999999e-05,-12.463
1390.895,0.362818,-0.012574,,-1.2574e-05,-12.574000000000002
1390.9560000000001,0.359892,-0.012653,,-1.2653e-05,-12.653
1391.0179999999998,0.35696500000000003,-0.012746,,-1.2745999999999996e-05,-12.746
1391.079,0.353866,-0.012811,,-1.2811000000000003e-05,-12.811000000000002
1391.148,0.350767,-0.012746,,-1.2745999999999996e-05,-12.746
1391.211,0.347496,-0.012822,,-1.2822e-05,-12.822000000000001
1391.273,0.34439699999999995,-0.01289,,-1.289e-05,-12.89
1391.335,0.34147,-0.012977,,-1.2977e-05,-12.977
1391.404,0.33802600000000005,-0.013001,,-1.3000999999999996e-05,-13.001
1391.465,0.335272,-0.013028,,-1.3028e-05,-13.027999999999999
1391.526,0.332173,-0.013041999999999998,,-1.3041999999999996e-05,-13.041999999999998
1391.588,0.328902,-0.013076,,-1.3076e-05,-13.076
1391.649,0.325975,-0.013114,,-1.3113999999999997e-05,-13.114
1391.713,0.322876,-0.01319,,-1.319e-05,-13.19
1391.777,0.319777,-0.013335,,-1.3335e-05,-13.335
1391.839,0.316678,-0.013397,,-1.3397e-05,-13.396999999999998
1391.904,0.313579,-0.013379,,-1.3378999999999997e-05,-13.378999999999998
1391.9660000000001,0.31048000000000003,-0.013386000000000002,,-1.3386000000000004e-05,-13.386000000000005
1392.029,0.307553,-0.013416999999999998,,-1.3417e-05,-13.416999999999998
1392.0910000000001,0.304454,-0.013486,,-1.3486e-05,-13.485999999999999
1392.1529999999998,0.301183,-0.013552000000000002,,-1.3552000000000003e-05,-13.552
1392.213,0.298256,-0.013607,,-1.3607e-05,-13.607000000000001
1392.275,0.295157,-0.01371,,-1.371e-05,-13.71
1392.338,0.292058,-0.013782,,-1.3782000000000001e-05,-13.781999999999998
1392.4089999999999,0.288787,-0.013703,,-1.3703e-05,-13.703
1392.471,0.285516,-0.013775,,-1.3775e-05,-13.775
1392.535,0.28241700000000003,-0.013882,,-1.3882e-05,-13.881999999999998
1392.602,0.279146,-0.013923,,-1.3923e-05,-13.923
1392.664,0.276391,-0.013944,,-1.3944e-05,-13.944
1392.726,0.27329200000000003,-0.013948,,-1.3948e-05,-13.948
1392.7879999999998,0.270021,-0.013968,,-1.3967999999999999e-05,-13.968000000000002
1392.851,0.266922,-0.014044,,-1.4044000000000001e-05,-14.044
1392.9170000000001,0.263651,-0.014168,,-1.4167999999999999e-05,-14.168
1392.9779999999998,0.260724,-0.01423,,-1.423e-05,-14.230000000000002
1393.0420000000001,0.257797,-0.014244,,-1.4244000000000001e-05,-14.244000000000002
1393.106,0.25452600000000003,-0.014213,,-1.4213e-05,-14.213
1393.168,0.251599,-0.014257,,-1.4257000000000001e-05,-14.257
1393.2379999999998,0.247984,-0.014457,,-1.4457e-05,-14.457
1393.3010000000002,0.244885,-0.014498,,-1.4498e-05,-14.498
1393.3629999999998,0.24213,-0.014516,,-1.4516e-05,-14.515999999999998
1393.425,0.239031,-0.014554,,-1.4554000000000002e-05,-14.553999999999998
1393.4879999999998,0.235932,-0.01456,,-1.456e-05,-14.56
1393.549,0.233005,-0.014597999999999996,,-1.4597999999999996e-05,-14.598
1393.6170000000002,0.229562,-0.014791,,-1.4791e-05,-14.790999999999999
1393.6789999999999,0.226291,-0.014838999999999996,,-1.4838999999999996e-05,-14.839
1393.743,0.223192,-0.01485,,-1.485e-05,-14.85
1393.8039999999999,0.220437,-0.014853,,-1.4853e-05,-14.853
1393.8670000000002,0.217166,-0.014866999999999997,,-1.4866999999999997e-05,-14.867
1393.931,0.214067,-0.014919,,-1.4919e-05,-14.919
1393.993,0.210796,-0.015018,,-1.5018e-05,-15.017999999999999
1394.056,0.207697,-0.015138999999999996,,-1.5139e-05,-15.138999999999998
1394.119,0.20477,-0.015253,,-1.5253e-05,-15.253
1394.18,0.201671,-0.015308,,-1.5308e-05,-15.308
1394.249,0.1984,-0.015253,,-1.5253e-05,-15.253
1394.3139999999999,0.195301,-0.015376,,-1.5376e-05,-15.376
1394.375,0.192202,-0.015497,,-1.5497e-05,-15.497
1394.44,0.188931,-0.015631,,-1.5631e-05,-15.630999999999998
1394.504,0.186004,-0.015652000000000003,,-1.5652000000000002e-05,-15.652000000000005
1394.567,0.182733,-0.015673,,-1.5673e-05,-15.673
1394.63,0.179634,-0.015728,,-1.5728e-05,-15.728
1394.6889999999999,0.176879,-0.01581,,-1.5810000000000006e-05,-15.81
1394.76,0.17343599999999998,-0.016058000000000003,,-1.6058000000000004e-05,-16.058000000000003
1394.8229999999999,0.170337,-0.016131,,-1.6131e-05,-16.131
1394.8870000000002,0.16706600000000002,-0.016165000000000002,,-1.6165000000000002e-05,-16.165000000000006
1394.953,0.163795,-0.01623,,-1.6230000000000002e-05,-16.23
1395.016,0.16104000000000002,-0.016399,,-1.6399e-05,-16.399
1395.078,0.157597,-0.016533000000000003,,-1.6533000000000002e-05,-16.533
1395.145,0.154498,-0.016602000000000002,,-1.6602e-05,-16.602000000000004
1395.2060000000001,0.151399,-0.016687999999999998,,-1.6687999999999993e-05,-16.688
1395.269,0.148472,-0.01675,,-1.675e-05,-16.75
1395.332,0.145373,-0.016847,,-1.6847e-05,-16.847
1395.395,0.142274,-0.016988,,-1.6988e-05,-16.988
1395.4560000000001,0.139347,-0.017126,,-1.7126e-05,-17.125999999999998
1395.521,0.136076,-0.017312,,-1.7312e-05,-17.312
1395.585,0.132805,-0.017391,,-1.7391e-05,-17.391000000000002
1395.648,0.129878,-0.01747,,-1.747e-05,-17.47
1395.7089999999998,0.126779,-0.017573,,-1.7573e-05,-17.572999999999997
1395.773,0.123852,-0.017718,,-1.7718000000000002e-05,-17.718
1395.836,0.120753,-0.017911,,-1.7911e-05,-17.910999999999998
1395.898,0.117826,-0.018069,,-1.8069e-05,-18.069000000000003
1395.963,0.114383,-0.018245,,-1.8245e-05,-18.245
1396.024,0.111284,-0.018348,,-1.8348e-05,-18.348
1396.0870000000002,0.108357,-0.018451,,-1.8451e-05,-18.451
1396.149,0.105258,-0.018568,,-1.8568e-05,-18.567999999999998
1396.21,0.102159,-0.01872,,-1.872e-05,-18.72
1396.271,0.099232,-0.018892,,-1.8892e-05,-18.892
1396.3329999999999,0.096478,-0.019109,,-1.9109e-05,-19.109
1396.396,0.093551,-0.019371,,-1.9371e-05,-19.371
1396.457,0.090452,-0.019608,,-1.9608e-05,-19.608
1396.5179999999998,0.087525,-0.019894,,-1.9894e-05,-19.894000000000002
1396.5810000000001,0.084426,-0.020201,,-2.0201e-05,-20.201
1396.6429999999998,0.08115499999999999,-0.02051,,-2.051e-05,-20.51
1396.704,0.07822799999999999,-0.020848,,-2.0848e-05,-20.848000000000003
1396.766,0.075129,-0.021206,,-2.1206e-05,-21.206
1396.829,0.072202,-0.021595,,-2.1595e-05,-21.595
1396.891,0.069448,-0.022053,,-2.2053e-05,-22.053
1396.954,0.06669299999999999,-0.022614,,-2.2614e-05,-22.614
1397.016,0.06359400000000001,-0.023279,,-2.3279000000000002e-05,-23.279
1397.079,0.060667,-0.024071,,-2.4071e-05,-24.070999999999998
1397.141,0.057741,-0.024973,,-2.4973000000000003e-05,-24.973000000000003
1397.203,0.054814,-0.026027,,-2.6027e-05,-26.027
1397.264,0.053091999999999986,-0.024549,,-2.4549e-05,-24.549000000000003
1397.325,0.053953,-0.019395,,-1.9395e-05,-19.395
1397.39,0.056363,-0.017033,,-1.7033e-05,-17.033
1397.453,0.058429,-0.015572999999999997,,-1.5572999999999998e-05,-15.573
1397.514,0.060667,-0.014547,,-1.4547e-05,-14.547
1397.576,0.06325,-0.013806,,-1.3806e-05,-13.806
1397.639,0.066177,-0.013269,,-1.3269000000000001e-05,-13.269
1397.704,0.068759,-0.012842,,-1.2842e-05,-12.842
1397.765,0.071514,-0.012556,,-1.2556e-05,-12.556
1397.8270000000002,0.074441,-0.012305,,-1.2305e-05,-12.305
