time,potential,current1_mA,coll_current,current1,current1_muA
1277.8139999999999,0.849532,-0.000453,,-4.53e-07,-0.45299999999999996
1277.874,0.846777,-0.000515,,-5.15e-07,-0.515
1277.9360000000001,0.8440219999999999,-0.000563,,-5.629999999999999e-07,-0.5630000000000001
1277.997,0.840923,-0.000629,,-6.29e-07,-0.629
1278.058,0.838169,-0.000698,,-6.979999999999999e-07,-0.6980000000000001
1278.122,0.8350700000000001,-0.000822,,-8.22e-07,-0.8220000000000001
1278.184,0.8323149999999999,-0.000939,,-9.39e-07,-0.939
1278.248,0.829216,-0.001025,,-1.025e-06,-1.025
1278.31,0.826117,-0.001076,,-1.076e-06,-1.0759999999999998
1278.371,0.823018,-0.001114,,-1.114e-06,-1.114
1278.432,0.820263,-0.00119,,-1.19e-06,-1.1900000000000002
1278.492,0.817509,-0.001266,,-1.266e-06,-1.266
1278.5539999999999,0.8144100000000001,-0.001321,,-1.321e-06,-1.3210000000000002
1278.616,0.811483,-0.00139,,-1.39e-06,-1.39
1278.68,0.808384,-0.001534,,-1.534e-06,-1.534
1278.743,0.805457,-0.00171,,-1.71e-06,-1.7100000000000002
1278.803,0.80253,-0.001824,,-1.824e-06,-1.824
1278.866,0.799603,-0.001979,,-1.979e-06,-1.979
1278.928,0.7966770000000001,-0.00212,,-2.12e-06,-2.12
1278.989,0.793578,-0.002247,,-2.247e-06,-2.247
1279.0510000000002,0.790651,-0.002364,,-2.364e-06,-2.3640000000000003
1279.114,0.787552,-0.002474,,-2.4739999999999995e-06,-2.474
1279.1760000000002,0.7847970000000001,-0.0026260000000000003,,-2.6260000000000004e-06,-2.6260000000000003
1279.238,0.782042,-0.002805,,-2.805e-06,-2.805
1279.298,0.779116,-0.002984,,-2.9839999999999997e-06,-2.984
1279.358,0.776533,-0.003167,,-3.167e-06,-3.1670000000000003
1279.4189999999999,0.7734340000000001,-0.003356,,-3.356e-06,-3.3560000000000003
1279.481,0.770679,-0.003594,,-3.594e-06,-3.594
1279.5430000000001,0.767753,-0.003828,,-3.828e-06,-3.828
1279.604,0.764998,-0.00402,,-4.0200000000000005e-06,-4.0200000000000005
1279.6680000000001,0.761727,-0.004227000000000001,,-4.2269999999999995e-06,-4.227
1279.73,0.7588,-0.004382,,-4.382e-06,-4.382
1279.7930000000001,0.7558729999999999,-0.004503,,-4.503e-06,-4.503
1279.855,0.752946,-0.004647,,-4.647e-06,-4.647
1279.915,0.75002,-0.004816,,-4.816e-06,-4.816
1279.9769999999999,0.747265,-0.004981,,-4.981e-06,-4.981
1280.0410000000002,0.744338,-0.005208,,-5.208e-06,-5.207999999999999
1280.105,0.7414109999999999,-0.005432,,-5.432000000000001e-06,-5.432
1280.1660000000002,0.73814,-0.005615,,-5.6150000000000005e-06,-5.615
1280.228,0.735558,-0.00578,,-5.78e-06,-5.7799999999999985
1280.289,0.732459,-0.005935,,-5.935e-06,-5.9350000000000005
1280.351,0.72936,-0.006076,,-6.076e-06,-6.0760000000000005
1280.4189999999999,0.726433,-0.0062,,-6.2e-06,-6.2
1280.489,0.722645,-0.006506999999999999,,-6.506999999999999e-06,-6.506999999999999
1280.5539999999999,0.719546,-0.006624,,-6.624e-06,-6.624
1280.616,0.716792,-0.006809999999999999,,-6.809999999999998e-06,-6.81
1280.682,0.713865,-0.007092,,-7.092000000000001e-06,-7.0920000000000005
1280.743,0.710766,-0.0073599999999999985,,-7.359999999999998e-06,-7.3599999999999985
1280.806,0.707667,-0.007667,,-7.667000000000001e-06,-7.667000000000001
1280.869,0.704396,-0.007953,,-7.953e-06,-7.952999999999999
1280.932,0.7012970000000001,-0.008239,,-8.239e-06,-8.238999999999999
1280.994,0.698198,-0.008565999999999999,,-8.565999999999999e-06,-8.565999999999999
1281.055,0.695443,-0.008931,,-8.931e-06,-8.931000000000001
1281.115,0.692516,-0.009334,,-9.333999999999999e-06,-9.334
1281.1760000000002,0.689589,-0.009688,,-9.688e-06,-9.688
1281.237,0.6864899999999999,-0.009909,,-9.909e-06,-9.908999999999999
1281.299,0.6832189999999999,-0.009929,,-9.929e-06,-9.929
1281.361,0.68012,-0.009764,,-9.764e-06,-9.764
1281.423,0.6766770000000001,-0.009475,,-9.475000000000003e-06,-9.475
1281.483,0.673234,-0.009144,,-9.144e-06,-9.144
1281.547,0.669446,-0.009006,,-9.006e-06,-9.006
1281.61,0.666175,-0.008955,,-8.955e-06,-8.955
1281.672,0.662559,-0.008951,,-8.951000000000001e-06,-8.951
1281.733,0.659632,-0.008981999999999999,,-8.981999999999996e-06,-8.982000000000001
1281.7930000000001,0.656189,-0.009034,,-9.034e-06,-9.033999999999999
1281.862,0.65309,-0.009117,,-9.117000000000001e-06,-9.117
1281.924,0.649991,-0.009227,,-9.227e-06,-9.227
1281.986,0.646548,-0.009316,,-9.316e-06,-9.316
1282.049,0.643105,-0.009368,,-9.367999999999999e-06,-9.368000000000002
1282.111,0.6400060000000001,-0.00942,,-9.42e-06,-9.42
1282.182,0.636907,-0.009461,,-9.461e-06,-9.461
1282.251,0.632947,-0.009581,,-9.581e-06,-9.581
1282.317,0.629848,-0.009575,,-9.575e-06,-9.575
1282.378,0.626577,-0.009643,,-9.642999999999999e-06,-9.642999999999999
1282.44,0.623822,-0.009733,,-9.733e-06,-9.732999999999999
1282.501,0.620895,-0.009822,,-9.821999999999997e-06,-9.822000000000001
1282.563,0.617624,-0.009926,,-9.926e-06,-9.926
1282.624,0.614525,-0.009991,,-9.991e-06,-9.991
1282.688,0.611254,-0.010088,,-1.0088e-05,-10.088
1282.75,0.608155,-0.010132,,-1.0132e-05,-10.131999999999998
1282.813,0.604884,-0.010153,,-1.0153e-05,-10.152999999999999
1282.873,0.601957,-0.010201,,-1.0201e-05,-10.201
1282.934,0.5990300000000001,-0.010249,,-1.0249000000000001e-05,-10.249
1282.996,0.595931,-0.010263,,-1.0263e-05,-10.263
1283.059,0.593004,-0.010298,,-1.0298e-05,-10.298
1283.122,0.5900770000000001,-0.01037,,-1.037e-05,-10.37
1283.184,0.586634,-0.010442,,-1.0442000000000001e-05,-10.442
1283.245,0.583879,-0.010477,,-1.0477e-05,-10.477
1283.309,0.580436,-0.010508,,-1.0508e-05,-10.508
1283.37,0.5771649999999999,-0.010515,,-1.0515e-05,-10.515
1283.432,0.574238,-0.010511,,-1.0511e-05,-10.511
1283.493,0.5711390000000001,-0.010518,,-1.0518000000000003e-05,-10.517999999999999
1283.556,0.5682119999999999,-0.010518,,-1.0518000000000003e-05,-10.517999999999999
1283.617,0.565113,-0.010542,,-1.0542000000000003e-05,-10.542000000000002
1283.6789999999999,0.562359,-0.01057,,-1.057e-05,-10.57
1283.741,0.5592600000000001,-0.010611,,-1.0610999999999999e-05,-10.610999999999999
1283.8010000000002,0.556333,-0.010659,,-1.0659e-05,-10.659
1283.863,0.553578,-0.010718,,-1.0718e-05,-10.718
1283.9260000000002,0.550307,-0.010797,,-1.0797e-05,-10.797
1283.987,0.547208,-0.010845,,-1.0845e-05,-10.845
1284.05,0.5441090000000001,-0.01088,,-1.088e-05,-10.88
1284.11,0.540838,-0.010911,,-1.0911e-05,-10.911
1284.172,0.5379109999999999,-0.010924,,-1.0924e-05,-10.924000000000001
1284.235,0.534812,-0.010924,,-1.0924e-05,-10.924000000000001
1284.296,0.531713,-0.010962,,-1.0962e-05,-10.962000000000002
1284.358,0.528958,-0.011007,,-1.1007e-05,-11.007
1284.42,0.525859,-0.01109,,-1.109e-05,-11.090000000000002
1284.483,0.522933,-0.011203,,-1.1203e-05,-11.203
1284.5439999999999,0.5200060000000001,-0.011289,,-1.1289000000000002e-05,-11.289000000000001
1284.607,0.516563,-0.011382,,-1.1382e-05,-11.382
1284.671,0.5132909999999999,-0.01142,,-1.142e-05,-11.42
1284.737,0.510192,-0.011413,,-1.1413e-05,-11.413
1284.799,0.5074380000000001,-0.011499,,-1.1499000000000001e-05,-11.499
1284.861,0.504339,-0.011603,,-1.1602999999999999e-05,-11.603
1284.923,0.501412,-0.011713,,-1.1713e-05,-11.713
1284.982,0.498313,-0.011802,,-1.1802e-05,-11.802
1285.048,0.495042,-0.011961,,-1.1961e-05,-11.961
1285.11,0.491771,-0.01204,,-1.204e-05,-12.04
1285.171,0.489016,-0.012123,,-1.2122999999999999e-05,-12.123
1285.233,0.485745,-0.012181,,-1.2180999999999999e-05,-12.181
1285.297,0.482818,-0.012219,,-1.2219000000000001e-05,-12.219000000000001
1285.358,0.479891,-0.012288,,-1.2288e-05,-12.288
1285.4189999999999,0.4769640000000001,-0.01235,,-1.235e-05,-12.35
1285.481,0.473865,-0.012426,,-1.2426e-05,-12.426000000000002
1285.542,0.4709390000000001,-0.012457,,-1.2457000000000001e-05,-12.457
1285.6019999999999,0.468184,-0.012477,,-1.2477e-05,-12.477
1285.665,0.464741,-0.012505,,-1.2505e-05,-12.505
1285.7269999999999,0.461642,-0.012481,,-1.2481e-05,-12.481000000000002
1285.7910000000002,0.458198,-0.012367,,-1.2367e-05,-12.367
1285.853,0.455099,-0.012229,,-1.2229e-05,-12.229
1285.9160000000002,0.452172,-0.012088,,-1.2088e-05,-12.088
1285.9769999999999,0.449073,-0.011957,,-1.1957000000000001e-05,-11.957
1286.04,0.446147,-0.011854,,-1.1854e-05,-11.854000000000001
1286.101,0.443048,-0.011747,,-1.1747e-05,-11.747
1286.162,0.439949,-0.01162,,-1.162e-05,-11.62
1286.222,0.437022,-0.011513,,-1.1513e-05,-11.512999999999998
1286.2839999999999,0.433923,-0.011424,,-1.1424000000000001e-05,-11.424000000000001
1286.348,0.43048,-0.011317,,-1.1317e-05,-11.317
1286.415,0.427036,-0.011083,,-1.1083e-05,-11.082999999999998
1286.475,0.424282,-0.010979,,-1.0979e-05,-10.979
1286.536,0.421355,-0.0109,,-1.09e-05,-10.9
1286.599,0.418428,-0.010852,,-1.0852e-05,-10.852
1286.662,0.415329,-0.010838,,-1.0838e-05,-10.838
1286.724,0.41223,-0.010838,,-1.0838e-05,-10.838
1286.7910000000002,0.408787,-0.010776,,-1.0776000000000003e-05,-10.776000000000002
1286.854,0.40586,-0.01069,,-1.069e-05,-10.69
1286.9160000000002,0.402761,-0.010642,,-1.0642e-05,-10.642
1286.978,0.399834,-0.010628,,-1.0627999999999999e-05,-10.628
1287.04,0.396735,-0.010645,,-1.0645e-05,-10.645
1287.101,0.393636,-0.010663,,-1.0663e-05,-10.662999999999998
1287.164,0.390537,-0.010718,,-1.0718e-05,-10.718
1287.226,0.38761,-0.010735,,-1.0735e-05,-10.735
1287.288,0.384683,-0.010738,,-1.0738e-05,-10.738
1287.35,0.381412,-0.0107,,-1.07e-05,-10.7
1287.412,0.378658,-0.01069,,-1.069e-05,-10.69
1287.473,0.375559,-0.010676,,-1.0676e-05,-10.675999999999998
1287.536,0.37246,-0.010676,,-1.0676e-05,-10.675999999999998
1287.597,0.369533,-0.0107,,-1.07e-05,-10.7
1287.6580000000001,0.366434,-0.010735,,-1.0735e-05,-10.735
1287.722,0.363507,-0.010852,,-1.0852e-05,-10.852
1287.786,0.360236,-0.010931,,-1.0931e-05,-10.931
1287.847,0.357309,-0.010969,,-1.0969000000000001e-05,-10.969000000000001
1287.9080000000001,0.35438200000000003,-0.011007,,-1.1007e-05,-11.007
1287.969,0.351455,-0.011014,,-1.1014000000000002e-05,-11.014000000000001
1288.031,0.348356,-0.011004,,-1.1004000000000002e-05,-11.004000000000001
1288.0919999999999,0.34543,-0.011004,,-1.1004000000000002e-05,-11.004000000000001
1288.157,0.342331,-0.01101,,-1.101e-05,-11.01
1288.22,0.33923200000000003,-0.011076,,-1.1075999999999999e-05,-11.075999999999999
1288.281,0.336133,-0.011138,,-1.1137999999999999e-05,-11.138
1288.343,0.333034,-0.011179,,-1.1179e-05,-11.179000000000002
1288.406,0.329935,-0.011207,,-1.1207000000000001e-05,-11.207
1288.469,0.327008,-0.011193,,-1.1193e-05,-11.193
1288.53,0.324081,-0.011186,,-1.1186e-05,-11.186
1288.5919999999999,0.320982,-0.011165,,-1.1165e-05,-11.165
1288.653,0.31805500000000003,-0.011176,,-1.1176e-05,-11.175999999999998
1288.719,0.314784,-0.011251,,-1.1251e-05,-11.251
1288.78,0.311513,-0.011307,,-1.1307e-05,-11.307
1288.843,0.308758,-0.011372,,-1.1372e-05,-11.372
1288.905,0.305487,-0.011403,,-1.1402999999999999e-05,-11.402999999999999
1288.9669999999999,0.302732,-0.01141,,-1.141e-05,-11.41
1289.03,0.299633,-0.011386,,-1.1385999999999999e-05,-11.386
1289.095,0.29619,-0.011375,,-1.1375e-05,-11.375
1289.157,0.293091,-0.011427,,-1.1427000000000001e-05,-11.427
1289.222,0.28982,-0.011541,,-1.1540999999999997e-05,-11.541
1289.287,0.286721,-0.011548,,-1.1548e-05,-11.548000000000002
1289.35,0.283794,-0.011496,,-1.1496e-05,-11.496
1289.415,0.280523,-0.011503,,-1.1503e-05,-11.503
1289.48,0.277252,-0.01162,,-1.162e-05,-11.62
1289.545,0.273981,-0.011668,,-1.1667999999999999e-05,-11.668
1289.61,0.271054,-0.011599,,-1.1599e-05,-11.599
1289.6760000000002,0.267611,-0.011596,,-1.1596e-05,-11.595999999999998
1289.737,0.26468400000000003,-0.011641,,-1.1641e-05,-11.640999999999998
1289.8010000000002,0.261413,-0.01174,,-1.174e-05,-11.74
1289.862,0.258486,-0.011778,,-1.1778e-05,-11.777999999999999
1289.925,0.25555900000000004,-0.011809,,-1.1809000000000002e-05,-11.809000000000001
1289.987,0.252632,-0.011816,,-1.1815999999999998e-05,-11.815999999999999
1290.049,0.249361,-0.011799,,-1.1798999999999997e-05,-11.799000000000001
1290.113,0.246434,-0.011785,,-1.1784999999999996e-05,-11.784999999999998
1290.174,0.243163,-0.011823,,-1.1823e-05,-11.823
1290.234,0.240408,-0.011851,,-1.1850999999999999e-05,-11.850999999999999
1290.297,0.237309,-0.011913,,-1.1913e-05,-11.913
1290.362,0.234038,-0.012026,,-1.2026e-05,-12.026
1290.424,0.230939,-0.012067,,-1.2067e-05,-12.067
1290.485,0.228012,-0.012092,,-1.2092e-05,-12.092
1290.547,0.225086,-0.012109,,-1.2109e-05,-12.109000000000002
1290.608,0.221987,-0.012112,,-1.2112000000000004e-05,-12.112000000000002
1290.67,0.218888,-0.012116,,-1.2115999999999999e-05,-12.116
1290.732,0.215961,-0.012119,,-1.2119e-05,-12.119000000000002
1290.7930000000001,0.21269,-0.012147,,-1.2147e-05,-12.147
1290.855,0.209935,-0.012191,,-1.2190999999999999e-05,-12.190999999999999
1290.9180000000001,0.206664,-0.012274,,-1.2274000000000001e-05,-12.274
1290.98,0.203565,-0.012343000000000002,,-1.2343000000000004e-05,-12.343000000000002
1291.0410000000002,0.200638,-0.012405,,-1.2405e-05,-12.405
1291.105,0.197539,-0.012488,,-1.2488e-05,-12.488
1291.1680000000001,0.19444,-0.012494,,-1.2494000000000001e-05,-12.494000000000002
1291.231,0.191341,-0.012498,,-1.2498e-05,-12.498
1291.292,0.188414,-0.012546,,-1.2546e-05,-12.546
1291.354,0.185488,-0.012577,,-1.2577e-05,-12.577
1291.4180000000001,0.182389,-0.012687,,-1.2687e-05,-12.687
1291.48,0.179117,-0.012791,,-1.2790999999999998e-05,-12.790999999999999
1291.542,0.176191,-0.012887,,-1.2887e-05,-12.887
1291.606,0.173092,-0.012956,,-1.2956e-05,-12.956
1291.6680000000001,0.169993,-0.012972999999999998,,-1.2972999999999998e-05,-12.973
1291.73,0.166894,-0.013008,,-1.3008e-05,-13.008
1291.7930000000001,0.163967,-0.013063,,-1.3063e-05,-13.062999999999999
1291.855,0.160868,-0.013135,,-1.3135e-05,-13.135
1291.9180000000001,0.157769,-0.013224,,-1.3224e-05,-13.224000000000002
1291.98,0.155014,-0.013324,,-1.3324000000000003e-05,-13.324000000000002
1292.0430000000001,0.151571,-0.013431,,-1.3430999999999999e-05,-13.431
1292.106,0.148472,-0.013513999999999998,,-1.3513999999999996e-05,-13.513999999999998
1292.167,0.145717,-0.013576,,-1.3575999999999998e-05,-13.576
1292.2269999999999,0.14244600000000002,-0.013665,,-1.3665e-05,-13.665
1292.292,0.139347,-0.013676,,-1.3676e-05,-13.675999999999998
1292.354,0.13642,-0.013744,,-1.3744000000000001e-05,-13.744000000000002
1292.415,0.133321,-0.013834,,-1.3834000000000002e-05,-13.834
1292.48,0.130394,-0.013988999999999998,,-1.3988999999999998e-05,-13.988999999999995
1292.542,0.127296,-0.014109,,-1.4109000000000002e-05,-14.109000000000002
1292.606,0.124024,-0.01424,,-1.424e-05,-14.24
1292.675,0.120753,-0.014233,,-1.4232999999999999e-05,-14.232999999999999
1292.738,0.117482,-0.014361,,-1.4360999999999999e-05,-14.360999999999999
1292.8,0.114555,-0.014616,,-1.4615999999999999e-05,-14.616
1292.863,0.111456,-0.014729,,-1.4729e-05,-14.729000000000001
1292.924,0.108529,-0.01485,,-1.485e-05,-14.85
1292.988,0.10543,-0.014963,,-1.4963e-05,-14.963
1293.052,0.102159,-0.015046,,-1.5046e-05,-15.046
1293.123,0.09906,-0.015284,,-1.5284e-05,-15.284
1293.192,0.095101,-0.015421,,-1.5421e-05,-15.421
1293.26,0.092346,-0.01569,,-1.569e-05,-15.69
1293.322,0.089247,-0.015948,,-1.5948e-05,-15.948
1293.383,0.08632000000000001,-0.016172,,-1.6172e-05,-16.172
1293.445,0.083049,-0.016447,,-1.6447e-05,-16.447
1293.507,0.07995,-0.016712,,-1.6712000000000002e-05,-16.712
1293.569,0.076851,-0.017009,,-1.7009e-05,-17.009
1293.631,0.07409600000000001,-0.017339,,-1.7339e-05,-17.339000000000002
1293.693,0.07116900000000001,-0.017738999999999998,,-1.7738999999999994e-05,-17.738999999999994
1293.755,0.068243,-0.018176,,-1.8176e-05,-18.176
1293.818,0.065316,-0.018816,,-1.8816e-05,-18.816
1293.879,0.062561,-0.019453,,-1.9452999999999998e-05,-19.453000000000007
1293.942,0.059462,-0.020283,,-2.0283e-05,-20.283
1294.006,0.056363,-0.021247,,-2.1247e-05,-21.247
1294.0710000000001,0.053609,-0.022267,,-2.2267e-05,-22.267
1294.136,0.053953,-0.016923,,-1.6923e-05,-16.923000000000002
1294.197,0.055502,-0.013934,,-1.3934e-05,-13.934
1294.259,0.057396,-0.012357,,-1.2357e-05,-12.357000000000001
1294.3210000000001,0.059462,-0.011245,,-1.1245e-05,-11.245
1294.381,0.061873,-0.010422,,-1.0422e-05,-10.422
1294.442,0.064455,-0.009826,,-9.826e-06,-9.826
1294.506,0.067038,-0.009413,,-9.413e-06,-9.413
1294.569,0.06979199999999999,-0.009092,,-9.092e-06,-9.092
1294.637,0.073408,-0.008865000000000001,,-8.865e-06,-8.865000000000002
1294.6989999999998,0.076334,-0.008806999999999999,,-8.806999999999999e-06,-8.806999999999997
1294.762,0.079433,-0.00881,,-8.81e-06,-8.81
1294.8239999999998,0.08253200000000001,-0.008824,,-8.824e-06,-8.824
1294.884,0.092862,-0.026984,,-2.6984e-05,-26.984
1294.945,0.097339,-0.036849,,-3.6849e-05,-36.849000000000004
1295.01,0.100093,-0.038037,,-3.8036999999999995e-05,-38.037
1295.075,0.102504,-0.037889,,-3.7889e-05,-37.889
1295.135,0.104742,-0.037293,,-3.7293000000000004e-05,-37.293
1295.197,0.106808,-0.036532,,-3.6531999999999995e-05,-36.532
1295.26,0.109046,-0.03573,,-3.573e-05,-35.73
1295.3210000000001,0.111112,-0.03489,,-3.489e-05,-34.89
1295.383,0.113694,-0.034046,,-3.4046e-05,-34.046
1295.443,0.115933,-0.033199,,-3.3199e-05,-33.199
1295.507,0.118515,-0.032314,,-3.2314e-05,-32.31399999999999
1295.568,0.121098,-0.031484,,-3.1484e-05,-31.484
1295.633,0.124197,-0.030627,,-3.0627e-05,-30.627
1295.6960000000001,0.127123,-0.029928,,-2.9927999999999995e-05,-29.928
1295.757,0.13005,-0.029305,,-2.9305e-05,-29.305
1295.818,0.132633,-0.02874,,-2.874e-05,-28.74
1295.88,0.135732,-0.028244,,-2.8244e-05,-28.244
1295.9389999999999,0.138486,-0.027783,,-2.7783e-05,-27.783
1296.003,0.141413,-0.0274,,-2.74e-05,-27.4
1296.066,0.144512,-0.027032,,-2.7031999999999998e-05,-27.031999999999996
1296.128,0.147439,-0.026677,,-2.6677e-05,-26.677
1296.19,0.15070999999999998,-0.026357,,-2.6357e-05,-26.357
1296.253,0.153981,-0.026078,,-2.6078e-05,-26.078
1296.316,0.157252,-0.025879000000000003,,-2.5879000000000008e-05,-25.879
1296.379,0.16000699999999998,-0.025744,,-2.5744e-05,-25.744
1296.4389999999999,0.163106,-0.025572,,-2.5572e-05,-25.572000000000006
1296.506,0.166549,-0.0254,,-2.54e-05,-25.4
1296.568,0.169304,-0.025186,,-2.5186e-05,-25.186
1296.632,0.172575,-0.024942,,-2.4942e-05,-24.941999999999997
1296.695,0.175846,-0.024759,,-2.4759e-05,-24.759
1296.756,0.17877300000000002,-0.02458,,-2.458e-05,-24.58
1296.819,0.181872,-0.024456,,-2.4456e-05,-24.456
1296.882,0.184971,-0.024326,,-2.4326e-05,-24.326
1296.944,0.18807,-0.024157,,-2.4157e-05,-24.157
1297.008,0.191341,-0.023919,,-2.3919000000000003e-05,-23.919
1297.07,0.19444,-0.023737,,-2.3736999999999997e-05,-23.737
1297.132,0.197539,-0.023541,,-2.3541e-05,-23.541
1297.194,0.200466,-0.023382,,-2.3381999999999997e-05,-23.381999999999998
1297.254,0.203565,-0.02321,,-2.321e-05,-23.21
1297.315,0.20632,-0.023031,,-2.3031e-05,-23.031
1297.376,0.209419,-0.022852,,-2.2851999999999997e-05,-22.851999999999997
1297.437,0.212518,-0.022632,,-2.2632e-05,-22.632
1297.5,0.215617,-0.022483000000000003,,-2.2483e-05,-22.483000000000004
1297.562,0.218716,-0.022301,,-2.2301e-05,-22.301
1297.626,0.222159,-0.022043,,-2.2043000000000002e-05,-22.043000000000003
1297.692,0.225258,-0.021743,,-2.1743e-05,-21.743
1297.754,0.228357,-0.02155,,-2.155e-05,-21.55
1297.815,0.231111,-0.021337,,-2.1337000000000006e-05,-21.337000000000003
1297.877,0.23421,-0.02112,,-2.112e-05,-21.12
1297.9360000000001,0.237137,-0.020889,,-2.0889e-05,-20.889
1298.0,0.240408,-0.020738,,-2.0738e-05,-20.738000000000003
1298.062,0.243335,-0.020548,,-2.0548e-05,-20.548
1298.123,0.246606,-0.020331,,-2.0331e-05,-20.331000000000003
1298.192,0.25005,-0.019991,,-1.9991e-05,-19.991
1298.253,0.252804,-0.019798,,-1.9798e-05,-19.798
1298.315,0.256076,-0.019588,,-1.9588000000000006e-05,-19.588
1298.379,0.259002,-0.019288,,-1.9288e-05,-19.288
1298.44,0.261929,-0.018951,,-1.8951e-05,-18.951
1298.504,0.265372,-0.018551,,-1.8551e-05,-18.551
1298.567,0.268471,-0.0182,,-1.82e-05,-18.2
1298.629,0.27157,-0.017921,,-1.7921e-05,-17.921
1298.6960000000001,0.274669,-0.017773,,-1.7773e-05,-17.773
1298.757,0.277424,-0.017601,,-1.7601e-05,-17.601
1298.819,0.28086700000000003,-0.017401,,-1.7400999999999998e-05,-17.401
1298.882,0.283966,-0.017157,,-1.7157000000000002e-05,-17.157
1298.945,0.287238,-0.016867,,-1.6867e-05,-16.867
