time,potential,current1_mA,coll_current,current1,current1_muA
1225.503,0.057568,-0.016392,,-1.6392e-05,-16.392
1225.567,0.05980700000000001,-0.015242,,-1.5242e-05,-15.242
1225.628,0.062389,-0.014433,,-1.4432999999999999e-05,-14.433000000000002
1225.688,0.06514400000000001,-0.013879,,-1.3879e-05,-13.879000000000001
1225.753,0.067726,-0.013416999999999998,,-1.3417e-05,-13.416999999999998
1225.818,0.070997,-0.013135,,-1.3135e-05,-13.135
1225.883,0.074441,-0.013069,,-1.3069000000000001e-05,-13.069
1225.947,0.07736699999999999,-0.013049000000000002,,-1.3049000000000003e-05,-13.049
1226.009,0.080466,-0.012997,,-1.2997000000000001e-05,-12.997
1226.0710000000001,0.083565,-0.012911,,-1.2910999999999999e-05,-12.911
1226.131,0.086492,-0.012804,,-1.2804000000000001e-05,-12.804
1226.192,0.08959099999999999,-0.012718,,-1.2718e-05,-12.718
1226.262,0.093207,-0.012629,,-1.2629e-05,-12.629
1226.323,0.096306,-0.012694,,-1.2694e-05,-12.694
1226.388,0.099405,-0.012787,,-1.2787e-05,-12.787
1226.453,0.102676,-0.012766,,-1.2766e-05,-12.765999999999998
1226.513,0.105775,-0.012818,,-1.2818000000000003e-05,-12.818
1226.5739999999998,0.108702,-0.012863,,-1.2863e-05,-12.863
1226.636,0.111973,-0.012901,,-1.2901e-05,-12.901
1226.697,0.115072,-0.012925,,-1.2925e-05,-12.925
1226.759,0.118343,-0.012966,,-1.2966e-05,-12.966
1226.823,0.121614,-0.013063,,-1.3063e-05,-13.062999999999999
1226.888,0.124541,-0.013121,,-1.3120999999999999e-05,-13.120999999999999
1226.95,0.12781199999999998,-0.013111,,-1.3110999999999999e-05,-13.110999999999999
1227.013,0.13073900000000002,-0.01308,,-1.3080000000000004e-05,-13.080000000000002
1227.073,0.133838,-0.013076,,-1.3076e-05,-13.076
1227.134,0.13710899999999998,-0.013069,,-1.3069000000000001e-05,-13.069
1227.2,0.14038,-0.013107,,-1.3106999999999997e-05,-13.107000000000001
1227.262,0.143307,-0.013145,,-1.3145e-05,-13.145
1227.3239999999998,0.146578,-0.013204,,-1.3204000000000001e-05,-13.204
1227.386,0.149333,-0.013221,,-1.3221e-05,-13.220999999999998
1227.448,0.15243199999999998,-0.013213999999999998,,-1.3213999999999996e-05,-13.214
1227.509,0.155531,-0.013207,,-1.3207e-05,-13.207
1227.569,0.158458,-0.013204,,-1.3204000000000001e-05,-13.204
1227.631,0.161556,-0.013142,,-1.3142e-05,-13.142000000000001
1227.693,0.164828,-0.013094,,-1.3094e-05,-13.094000000000001
1227.756,0.167754,-0.013056,,-1.3055999999999998e-05,-13.056
1227.818,0.170853,-0.013052,,-1.3052e-05,-13.052
1227.88,0.174125,-0.013063,,-1.3063e-05,-13.062999999999999
1227.942,0.177051,-0.0131,,-1.31e-05,-13.1
1228.006,0.18015,-0.013128,,-1.3128e-05,-13.128
1228.066,0.183077,-0.013107,,-1.3106999999999997e-05,-13.107000000000001
1228.129,0.186348,-0.013069,,-1.3069000000000001e-05,-13.069
1228.19,0.189275,-0.013004,,-1.3004000000000001e-05,-13.004000000000001
1228.251,0.192374,-0.012972999999999998,,-1.2972999999999998e-05,-12.973
1228.3110000000001,0.195473,-0.012959,,-1.2959e-05,-12.959000000000001
1228.371,0.198228,-0.012918,,-1.2917999999999999e-05,-12.918
1228.431,0.201155,-0.012866,,-1.2865999999999997e-05,-12.866
1228.492,0.204254,-0.012815,,-1.2815e-05,-12.815
1228.555,0.207353,-0.012694,,-1.2694e-05,-12.694
1228.618,0.210279,-0.012618,,-1.2618e-05,-12.618
1228.683,0.213378,-0.012735,,-1.2735e-05,-12.735
1228.743,0.216477,-0.012801,,-1.2801e-05,-12.800999999999998
1228.805,0.219576,-0.012687,,-1.2687e-05,-12.687
1228.868,0.222675,-0.012622,,-1.2622e-05,-12.622
1228.9289999999999,0.226119,-0.012574,,-1.2574e-05,-12.574000000000002
1228.989,0.228873,-0.01255,,-1.255e-05,-12.55
1229.0510000000002,0.231972,-0.012443,,-1.2443e-05,-12.443
1229.113,0.235243,-0.012309,,-1.2309e-05,-12.309
1229.177,0.237998,-0.012267,,-1.2267e-05,-12.267000000000001
1229.237,0.240925,-0.012147,,-1.2147e-05,-12.147
1229.3,0.244368,-0.012243,,-1.2243e-05,-12.243
1229.362,0.247123,-0.012205,,-1.2205e-05,-12.205
1229.423,0.250394,-0.01216,,-1.216e-05,-12.159999999999998
1229.485,0.253321,-0.012095,,-1.2095e-05,-12.095
1229.547,0.25642,-0.01193,,-1.193e-05,-11.93
1229.609,0.259691,-0.011957,,-1.1957000000000001e-05,-11.957
1229.67,0.262618,-0.011768,,-1.1768000000000003e-05,-11.767999999999999
1229.731,0.263651,-0.010752,,-1.0752e-05,-10.752
1229.792,0.266405,-0.010184,,-1.0184e-05,-10.184
1229.855,0.26124,-0.008362,,-8.361999999999999e-06,-8.362
1229.927,0.276563,-0.016912,,-1.6912e-05,-16.912
1229.989,0.279662,-0.011906,,-1.1906e-05,-11.905999999999999
1230.05,0.283106,-0.011372,,-1.1372e-05,-11.372
1230.118,0.285688,-0.011334,,-1.1334e-05,-11.334000000000001
1230.18,0.288271,-0.0113,,-1.13e-05,-11.3
1230.241,0.291025,-0.011265,,-1.1265e-05,-11.265
1230.3039999999999,0.29378000000000004,-0.011258,,-1.1258e-05,-11.258
1230.365,0.296707,-0.01121,,-1.121e-05,-11.21
1230.4260000000002,0.299978,-0.011086,,-1.1085999999999999e-05,-11.085999999999999
1230.488,0.303421,-0.010935,,-1.0935e-05,-10.935
1230.5510000000002,0.307209,-0.010711,,-1.0711e-05,-10.710999999999999
1230.613,0.310308,-0.010559,,-1.0559000000000002e-05,-10.559
1230.674,0.313579,-0.01048,,-1.048e-05,-10.48
1230.734,0.316161,-0.010391,,-1.0391e-05,-10.390999999999998
1230.796,0.31908800000000004,-0.010349,,-1.0349e-05,-10.348999999999998
1230.859,0.321499,-0.010353,,-1.0353e-05,-10.353
1230.92,0.324081,-0.010336,,-1.0336e-05,-10.335999999999999
1230.983,0.326664,-0.010332,,-1.0332e-05,-10.332
1231.0430000000001,0.32959,-0.010232,,-1.0232e-05,-10.232000000000001
1231.105,0.332689,-0.010129,,-1.0128999999999999e-05,-10.129
1231.1680000000001,0.336305,-0.009953,,-9.953e-06,-9.953
1231.231,0.340437,-0.009847,,-9.847e-06,-9.847000000000001
1231.292,0.343708,-0.010332,,-1.0332e-05,-10.332
1231.356,0.34680700000000003,-0.010094,,-1.0094e-05,-10.094
1231.4180000000001,0.349389,-0.009606,,-9.606000000000001e-06,-9.606
1231.481,0.351972,-0.009564,,-9.564e-06,-9.564
1231.5410000000002,0.354899,-0.00975,,-9.75e-06,-9.75
1231.6019999999999,0.357481,-0.009488,,-9.488e-06,-9.488
1231.665,0.360236,-0.009361,,-9.361e-06,-9.361
1231.724,0.363679,-0.009051,,-9.051e-06,-9.051
1231.7839999999999,0.366778,-0.008893,,-8.893e-06,-8.892999999999999
1231.847,0.369877,-0.008631,,-8.631000000000001e-06,-8.631
1231.9089999999999,0.372976,-0.008297,,-8.297e-06,-8.297
1231.972,0.375903,-0.008225,,-8.225e-06,-8.225
1232.0330000000001,0.379174,-0.008097,,-8.097e-06,-8.097000000000001
1232.095,0.382273,-0.007949,,-7.949e-06,-7.949
1232.157,0.3852,-0.008059,,-8.059e-06,-8.059000000000001
1232.218,0.388299,-0.007075,,-7.075e-06,-7.074999999999998
1232.279,0.39157,-0.008087,,-8.087e-06,-8.087
1232.3410000000001,0.398801,-0.009165,,-9.165e-06,-9.165
1232.403,0.397424,-0.007391,,-7.391e-06,-7.391
1232.4669999999999,0.400351,-0.008348999999999999,,-8.349e-06,-8.348999999999998
1232.527,0.403277,-0.008320999999999999,,-8.320999999999999e-06,-8.320999999999998
1232.589,0.406721,-0.007884,,-7.884000000000001e-06,-7.8839999999999995
1232.652,0.40982,-0.007708,,-7.708e-06,-7.707999999999998
1232.713,0.413091,-0.007581,,-7.581e-06,-7.581
1232.7730000000001,0.4160180000000001,-0.0074090000000000015,,-7.409e-06,-7.409000000000002
1232.8339999999998,0.418944,-0.007273999999999998,,-7.2739999999999985e-06,-7.273999999999999
1232.897,0.422043,-0.0072159999999999985,,-7.215999999999998e-06,-7.215999999999998
1232.9589999999998,0.425142,-0.00703,,-7.03e-06,-7.0299999999999985
1233.021,0.428414,-0.007047,,-7.047000000000001e-06,-7.0470000000000015
1233.083,0.43134,-0.006909,,-6.908999999999999e-06,-6.909
1233.146,0.434439,-0.006827,,-6.827000000000001e-06,-6.827000000000001
1233.2060000000001,0.437538,-0.006658,,-6.658e-06,-6.658
1233.266,0.4402930000000001,-0.0065,,-6.5000000000000004e-06,-6.5
1233.327,0.44322,-0.006297,,-6.297000000000001e-06,-6.297000000000001
1233.391,0.446319,-0.006107,,-6.107e-06,-6.107
1233.452,0.448901,-0.005883,,-5.882999999999999e-06,-5.882999999999999
1233.514,0.452172,-0.005649,,-5.649000000000001e-06,-5.649
1233.576,0.456132,-0.007133,,-7.1329999999999985e-06,-7.132999999999999
1233.639,0.459059,-0.006775,,-6.775e-06,-6.775
1233.703,0.46233,-0.006352,,-6.352e-06,-6.352
1233.765,0.465429,-0.006135,,-6.135e-06,-6.135
1233.826,0.468184,-0.005997,,-5.997e-06,-5.997000000000001
1233.893,0.471283,-0.005787,,-5.787000000000001e-06,-5.787000000000001
1233.958,0.474726,-0.005642,,-5.642e-06,-5.642
1234.021,0.477825,-0.005522,,-5.522000000000001e-06,-5.522
1234.083,0.480924,-0.0055320000000000005,,-5.5320000000000006e-06,-5.532
1234.144,0.484023,-0.005474000000000001,,-5.474e-06,-5.474
1234.205,0.486778,-0.005508,,-5.508e-06,-5.507999999999999
1234.268,0.490049,-0.00557,,-5.57e-06,-5.57
1234.329,0.49332,-0.005577,,-5.577e-06,-5.577000000000001
1234.391,0.4962470000000001,-0.0055320000000000005,,-5.5320000000000006e-06,-5.532
1234.453,0.499346,-0.005497999999999999,,-5.498e-06,-5.497999999999998
1234.515,0.502445,-0.005653,,-5.653e-06,-5.6530000000000005
1234.577,0.505372,-0.0051530000000000005,,-5.1530000000000005e-06,-5.1530000000000005
1234.639,0.508471,-0.004475,,-4.475e-06,-4.475
1234.7,0.51157,-0.004196,,-4.196e-06,-4.196000000000001
1234.76,0.514152,-0.004138,,-4.138e-06,-4.138
1234.823,0.5175960000000001,-0.004778,,-4.778e-06,-4.7780000000000005
1234.886,0.519145,-5.400000000000001e-05,,-5.4000000000000014e-08,-0.054000000000000006
1234.947,0.5227609999999999,-0.003266,,-3.266e-06,-3.266
1235.01,0.5263760000000001,-0.00475,,-4.75e-06,-4.75
1235.072,0.5298189999999999,-0.005022,,-5.022e-06,-5.0219999999999985
1235.135,0.533435,-0.005212,,-5.2119999999999985e-06,-5.212000000000001
1235.198,0.536878,-0.005102000000000001,,-5.102e-06,-5.102
1235.257,0.539977,-0.005091,,-5.091e-06,-5.091
1235.318,0.5429039999999999,-0.005907,,-5.907e-06,-5.907
1235.38,0.546003,-0.005487,,-5.4869999999999985e-06,-5.487
1235.441,0.548585,-0.004293,,-4.293e-06,-4.293
1235.504,0.5518569999999999,-0.005022,,-5.022e-06,-5.0219999999999985
1235.567,0.554956,-0.005126,,-5.1260000000000006e-06,-5.126
1235.626,0.557882,-0.005074,,-5.074e-06,-5.074000000000002
1235.688,0.560809,-0.00506,,-5.0600000000000015e-06,-5.0600000000000005
1235.75,0.563908,-0.005036,,-5.0360000000000006e-06,-5.0360000000000005
1235.8139999999999,0.5670069999999999,-0.004957,,-4.9569999999999984e-06,-4.957
1235.874,0.569934,-0.00494,,-4.94e-06,-4.94
1235.934,0.573033,-0.004905,,-4.905e-06,-4.9049999999999985
1235.996,0.576132,-0.00485,,-4.85e-06,-4.8500000000000005
1236.057,0.579059,-0.004792,,-4.792e-06,-4.792
1236.118,0.582158,-0.004726,,-4.726e-06,-4.726
1236.1789999999999,0.585601,-0.004723,,-4.723e-06,-4.723
1236.239,0.588356,-0.004657,,-4.657e-06,-4.657
1236.3010000000002,0.591283,-0.004558,,-4.5579999999999985e-06,-4.558
1236.364,0.594382,-0.004596,,-4.5960000000000006e-06,-4.596
1236.4260000000002,0.597653,-0.004599,,-4.599e-06,-4.599
1236.487,0.60058,-0.0045780000000000005,,-4.578000000000002e-06,-4.578
1236.549,0.603506,-0.004534000000000001,,-4.534000000000002e-06,-4.534000000000002
1236.613,0.6066050000000001,-0.004434,,-4.433999999999999e-06,-4.434
1236.675,0.609704,-0.004358,,-4.3580000000000005e-06,-4.3580000000000005
1236.737,0.612803,-0.004306,,-4.306e-06,-4.306
1236.799,0.616074,-0.004293,,-4.293e-06,-4.293
1236.858,0.618829,-0.004275,,-4.2750000000000006e-06,-4.275
1236.9180000000001,0.6217560000000001,-0.004268,,-4.2680000000000005e-06,-4.268
1236.982,0.625027,-0.004282,,-4.282e-06,-4.282
1237.0430000000001,0.6281260000000001,-0.004296,,-4.296e-06,-4.296
1237.105,0.631225,-0.00433,,-4.33e-06,-4.33
1237.167,0.634324,-0.004327,,-4.327e-06,-4.327
1237.229,0.637079,-0.004299,,-4.299e-06,-4.299
1237.289,0.640178,-0.004265,,-4.265e-06,-4.265
1237.349,0.643105,-0.004241,,-4.2410000000000006e-06,-4.2410000000000005
1237.413,0.646203,-0.004179,,-4.1789999999999984e-06,-4.1789999999999985
1237.475,0.64913,-0.004117,,-4.117e-06,-4.117
1237.537,0.652229,-0.004072,,-4.072e-06,-4.072
1237.599,0.655673,-0.004041,,-4.040999999999998e-06,-4.041
1237.66,0.658772,-0.004017,,-4.017e-06,-4.017
1237.722,0.661871,-0.0040100000000000005,,-4.0100000000000006e-06,-4.010000000000002
1237.7839999999999,0.66497,-0.004017,,-4.017e-06,-4.017
1237.845,0.667896,-0.003976,,-3.9760000000000006e-06,-3.976
1237.907,0.670995,-0.003914,,-3.914e-06,-3.9139999999999997
1237.968,0.67375,-0.003797,,-3.797e-06,-3.7969999999999997
1238.031,0.6766770000000001,-0.003563,,-3.563e-06,-3.563
1238.09,0.6794319999999999,-0.003256,,-3.2560000000000007e-06,-3.256
1238.153,0.682358,-0.002829,,-2.829e-06,-2.829
1238.224,0.685974,-0.002433,,-2.4330000000000003e-06,-2.4330000000000003
1238.288,0.6890729999999999,-0.002158,,-2.158e-06,-2.158
1238.35,0.6918270000000001,-0.001965,,-1.965e-06,-1.965
1238.412,0.6945819999999999,-0.001924,,-1.924e-06,-1.9240000000000002
1238.472,0.697853,-0.001996,,-1.996e-06,-1.996
1238.531,0.700952,-0.002137,,-2.137e-06,-2.137
1238.6989999999998,0.709388,-0.002347,,-2.347e-06,-2.3469999999999995
1238.759,0.7123149999999999,-0.002406,,-2.406e-06,-2.406
1238.8210000000001,0.7159310000000001,-0.00245,,-2.45e-06,-2.45
1238.888,0.7190300000000001,-0.002523,,-2.523e-06,-2.523
1238.9489999999998,0.721957,-0.002485,,-2.4850000000000003e-06,-2.4850000000000003
1239.01,0.7248829999999999,-0.002406,,-2.406e-06,-2.406
1239.072,0.728155,-0.002282,,-2.2820000000000003e-06,-2.282
1239.135,0.7310810000000001,-0.00213,,-2.13e-06,-2.13
1239.1960000000001,0.734352,-0.00201,,-2.01e-06,-2.01
1239.259,0.737107,-0.001865,,-1.865e-06,-1.865
1239.323,0.74055,-0.001772,,-1.772e-06,-1.7719999999999998
1239.386,0.743649,-0.001651,,-1.6510000000000004e-06,-1.651
1239.448,0.746576,-0.001483,,-1.483e-06,-1.483
1239.508,0.7493310000000001,-0.0013,,-1.2999999999999998e-06,-1.3
1239.568,0.75243,-0.001107,,-1.1070000000000002e-06,-1.1070000000000002
1239.631,0.755185,-0.00086,,-8.6e-07,-0.86
1239.694,0.7582840000000001,-0.000608,,-6.079999999999999e-07,-0.608
1239.755,0.76121,-0.000374,,-3.74e-07,-0.3740000000000001
1239.816,0.764137,-0.000164,,-1.6399999999999999e-07,-0.16399999999999998
1239.878,0.7670640000000001,5.600000000000001e-05,,5.600000000000001e-08,0.056000000000000015
1239.9389999999999,0.770163,0.00026000000000000003,,2.6000000000000005e-07,0.26
1240.001,0.7730899999999999,0.0004280000000000001,,4.280000000000001e-07,0.4280000000000001
1240.062,0.776017,0.000625,,6.25e-07,0.625
1240.122,0.778943,0.00081,,8.1e-07,0.8099999999999999
1240.1860000000001,0.78187,0.000941,,9.41e-07,0.941
1240.248,0.7849689999999999,0.001117,,1.117e-06,1.117
1240.3110000000001,0.787896,0.00132,,1.32e-06,1.32
1240.372,0.790651,0.001489,,1.489e-06,1.489
1240.435,0.79375,0.001685,,1.6850000000000004e-06,1.685
1240.498,0.797021,0.00183,,1.83e-06,1.83
1240.56,0.8001199999999999,0.00193,,1.93e-06,1.93
1240.621,0.802875,0.002012,,2.012e-06,2.012
1240.683,0.806146,0.00205,,2.0500000000000003e-06,2.0500000000000003
1240.745,0.8089,0.002095,,2.0950000000000003e-06,2.095
1240.808,0.811999,0.00216,,2.16e-06,2.16
1240.869,0.815098,0.002219,,2.219e-06,2.219
1240.93,0.8178529999999999,0.002298,,2.2980000000000003e-06,2.298
1240.991,0.820952,0.00236,,2.3600000000000003e-06,2.3600000000000003
1241.052,0.8242229999999999,0.002419,,2.419e-06,2.419
1241.111,0.82715,0.002422,,2.422e-06,2.422
1241.172,0.830249,0.00246,,2.46e-06,2.46
1241.232,0.833176,0.00248,,2.48e-06,2.48
1241.292,0.836103,0.002511,,2.511e-06,2.511
1241.355,0.839202,0.002563,,2.5630000000000003e-06,2.563
1241.4160000000002,0.8421280000000001,0.002598,,2.598e-06,2.5980000000000003
1241.476,0.8450549999999999,0.002608,,2.6080000000000003e-06,2.608
1241.537,0.8481540000000001,0.002618,,2.618e-06,2.6180000000000003
1241.601,0.851598,0.002584,,2.584e-06,2.5839999999999996
1241.663,0.854524,0.002542,,2.542e-06,2.542
1241.728,0.8577950000000001,0.002515,,2.515e-06,2.515
1241.7910000000002,0.861067,0.002563,,2.5630000000000003e-06,2.563
1241.853,0.863993,0.002611,,2.611e-06,2.611
1241.915,0.867092,0.002653,,2.6530000000000003e-06,2.653
1241.974,0.8700190000000001,0.002663,,2.663e-06,2.6630000000000003
1242.036,0.8731180000000001,0.00267,,2.6700000000000003e-06,2.67
1242.098,0.876217,0.002691,,2.691e-06,2.6910000000000003
1242.161,0.8794879999999999,0.002666,,2.6660000000000004e-06,2.6660000000000004
1242.224,0.882415,0.002632,,2.6320000000000004e-06,2.6319999999999997
1242.2839999999999,0.8855139999999999,0.002635,,2.635e-06,2.635
1242.347,0.888785,0.002635,,2.635e-06,2.635
1242.412,0.8911959999999999,0.002584,,2.584e-06,2.5839999999999996
1242.473,0.889818,0.000869,,8.690000000000001e-07,0.8690000000000001
1242.5330000000001,0.8877520000000001,0.000449,,4.49e-07,0.449
1242.596,0.8855139999999999,0.00028700000000000004,,2.87e-07,0.28700000000000003
1242.6580000000001,0.8832760000000001,0.000139,,1.3900000000000001e-07,0.13899999999999998
1242.72,0.8810379999999999,-2.6e-05,,-2.6e-08,-0.026
1242.782,0.8786280000000001,-0.000164,,-1.6399999999999999e-07,-0.16399999999999998
1242.8419999999999,0.876217,-0.000264,,-2.6400000000000003e-07,-0.264
1242.903,0.873635,-0.000367,,-3.6700000000000004e-07,-0.36700000000000005
1242.965,0.8708799999999999,-0.00047,,-4.700000000000001e-07,-0.47
1243.026,0.8682979999999999,-0.00055,,-5.5e-07,-0.55
1243.086,0.8655430000000001,-0.000608,,-6.079999999999999e-07,-0.608
1243.147,0.8629600000000001,-0.000674,,-6.74e-07,-0.674
1243.21,0.860034,-0.000705,,-7.05e-07,-0.705
1243.271,0.857107,-0.000729,,-7.29e-07,-0.7290000000000001
1243.3339999999998,0.854352,-0.000739,,-7.389999999999998e-07,-0.7390000000000001
1243.396,0.851425,-0.000753,,-7.529999999999999e-07,-0.753
1243.458,0.848326,-0.000794,,-7.94e-07,-0.794
1243.52,0.8455719999999999,-0.00086,,-8.6e-07,-0.86
1243.5819999999999,0.8426450000000001,-0.000963,,-9.63e-07,-0.963
1243.642,0.8397180000000001,-0.001011,,-1.011e-06,-1.011
1243.705,0.836619,-0.001104,,-1.1040000000000001e-06,-1.104
1243.768,0.833692,-0.001156,,-1.156e-06,-1.156
1243.8310000000001,0.830421,-0.001159,,-1.159e-06,-1.159
1243.895,0.8273219999999999,-0.001169,,-1.1690000000000002e-06,-1.1689999999999998
1243.9569999999999,0.824567,-0.001187,,-1.1869999999999998e-06,-1.1869999999999998
1244.019,0.821641,-0.001259,,-1.2590000000000001e-06,-1.2590000000000001
1244.0810000000001,0.818542,-0.001369,,-1.3690000000000001e-06,-1.369
1244.142,0.815787,-0.001441,,-1.4409999999999998e-06,-1.4409999999999998
1244.204,0.81286,-0.001559,,-1.559e-06,-1.5590000000000002
1244.268,0.809417,-0.001679,,-1.6790000000000001e-06,-1.6789999999999998
1244.3319999999999,0.8064899999999999,-0.001713,,-1.7130000000000002e-06,-1.713
1244.4,0.8032189999999999,-0.001786,,-1.786e-06,-1.786
1244.462,0.800292,-0.001937,,-1.9370000000000003e-06,-1.9369999999999998
1244.524,0.797365,-0.002092,,-2.092e-06,-2.092
1244.585,0.794438,-0.00224,,-2.24e-06,-2.24
1244.645,0.791512,-0.002364,,-2.364e-06,-2.3640000000000003
1244.704,0.7885850000000001,-0.0025050000000000003,,-2.505e-06,-2.5050000000000003
1244.765,0.7860020000000001,-0.002657,,-2.6569999999999997e-06,-2.657
1244.826,0.782903,-0.002843,,-2.843e-06,-2.843
1244.889,0.7798039999999999,-0.003025,,-3.025e-06,-3.025
1244.951,0.77705,-0.003163,,-3.163e-06,-3.1630000000000003
1245.014,0.7739510000000001,-0.003297,,-3.297e-06,-3.2969999999999997
1245.075,0.771196,-0.0034630000000000004,,-3.4630000000000006e-06,-3.4630000000000005
1245.137,0.768269,-0.003635,,-3.635e-06,-3.635
1245.202,0.765342,-0.00389,,-3.89e-06,-3.89
1245.262,0.762588,-0.004065,,-4.065e-06,-4.065
1245.323,0.7596609999999999,-0.004265,,-4.265e-06,-4.265
1245.385,0.756734,-0.004478,,-4.478e-06,-4.4780000000000015
1245.448,0.753635,-0.004678,,-4.678e-06,-4.678
1245.512,0.750708,-0.004819,,-4.818999999999998e-06,-4.818999999999999
1245.575,0.747781,-0.00493,,-4.9299999999999985e-06,-4.93
1245.636,0.744682,-0.005081,,-5.081e-06,-5.081
1245.698,0.7417560000000001,-0.005236,,-5.236e-06,-5.236000000000001
1245.759,0.739001,-0.005386999999999999,,-5.3869999999999986e-06,-5.3870000000000005
1245.8210000000001,0.736074,-0.005577,,-5.577e-06,-5.577000000000001
1245.884,0.733147,-0.005794,,-5.794e-06,-5.794
1245.9460000000001,0.7300479999999999,-0.006,,-6e-06,-6.0
1246.011,0.726777,-0.006183,,-6.183e-06,-6.183
1246.072,0.72385,-0.006369,,-6.369e-06,-6.369
