time,potential,current1_mA,coll_current,current1,current1_muA
245.61599999999999,0.877078,0.001031,,1.031e-06,1.031
245.674,0.874668,0.000903,,9.03e-07,0.903
245.731,0.8724299999999999,0.000766,,7.66e-07,0.7659999999999999
245.78900000000002,0.8698469999999999,0.000607,,6.070000000000001e-07,0.607
245.845,0.867609,0.000421,,4.21e-07,0.42100000000000004
245.9,0.8650260000000001,0.00031800000000000003,,3.18e-07,0.318
245.958,0.8626159999999999,0.000256,,2.56e-07,0.256
246.016,0.8598610000000001,0.000204,,2.0399999999999997e-07,0.204
246.07299999999998,0.8572790000000001,0.000136,,1.36e-07,0.136
246.12900000000002,0.8548690000000001,1e-06,,1e-09,0.001
246.187,0.851942,-0.000123,,-1.23e-07,-0.123
246.24400000000003,0.849532,-0.00024700000000000004,,-2.4700000000000003e-07,-0.24700000000000005
246.3,0.846949,-0.000295,,-2.9500000000000003e-07,-0.29500000000000004
246.358,0.844194,-0.000336,,-3.36e-07,-0.336
246.416,0.84144,-0.000384,,-3.84e-07,-0.384
246.47400000000002,0.838685,-0.000439,,-4.39e-07,-0.439
246.53099999999998,0.836103,-0.000536,,-5.36e-07,-0.536
246.58900000000003,0.833176,-0.0006490000000000001,,-6.490000000000001e-07,-0.649
246.646,0.830593,-0.000794,,-7.94e-07,-0.794
246.704,0.827666,-0.000901,,-9.009999999999999e-07,-0.9009999999999999
246.762,0.8249120000000001,-0.000987,,-9.87e-07,-0.987
246.821,0.8221569999999999,-0.001073,,-1.073e-06,-1.073
246.878,0.8194020000000001,-0.001111,,-1.111e-06,-1.111
246.93599999999998,0.8166479999999999,-0.001173,,-1.173e-06,-1.173
246.993,0.813893,-0.001259,,-1.2590000000000001e-06,-1.2590000000000001
247.05,0.811311,-0.001404,,-1.4039999999999998e-06,-1.4040000000000001
247.106,0.808556,-0.0016,,-1.6e-06,-1.6
247.162,0.805801,-0.001731,,-1.7309999999999996e-06,-1.731
247.218,0.803391,-0.001786,,-1.786e-06,-1.786
247.274,0.800636,-0.001875,,-1.875e-06,-1.875
247.332,0.79771,-0.002027,,-2.027e-06,-2.0269999999999997
247.39,0.794955,-0.002223,,-2.223e-06,-2.2230000000000003
247.44799999999998,0.7922,-0.002419,,-2.419e-06,-2.419
247.51,0.789273,-0.002564,,-2.564e-06,-2.5639999999999996
247.565,0.786863,-0.002805,,-2.805e-06,-2.805
247.627,0.783936,-0.00297,,-2.97e-06,-2.97
247.68400000000003,0.7811819999999999,-0.003177,,-3.177e-06,-3.177
247.74200000000002,0.7785989999999999,-0.003346,,-3.3460000000000002e-06,-3.346
247.80599999999998,0.7755,-0.003549,,-3.549e-06,-3.549
247.863,0.772745,-0.003735,,-3.735e-06,-3.735
247.922,0.770163,-0.0039,,-3.9e-06,-3.9
247.987,0.766892,-0.004089,,-4.089e-06,-4.089
248.043,0.764482,-0.004265,,-4.265e-06,-4.265
248.1,0.762071,-0.004379,,-4.379e-06,-4.379
248.158,0.7591439999999999,-0.004499,,-4.4990000000000005e-06,-4.4990000000000006
248.217,0.75639,-0.00464,,-4.64e-06,-4.64
248.27700000000002,0.753635,-0.004806,,-4.806e-06,-4.806
248.334,0.75088,-0.00493,,-4.9299999999999985e-06,-4.93
248.391,0.747954,-0.005109000000000001,,-5.1090000000000006e-06,-5.109000000000001
248.45,0.745199,-0.005281,,-5.281e-06,-5.281000000000001
248.50599999999997,0.7426159999999999,-0.00548,,-5.48e-06,-5.48
248.563,0.740034,-0.005608,,-5.6079999999999995e-06,-5.6080000000000005
248.62099999999998,0.737451,-0.005725,,-5.725e-06,-5.725
248.678,0.734697,-0.005811,,-5.811e-06,-5.811
248.735,0.73177,-0.005932,,-5.932e-06,-5.932
248.793,0.729015,-0.0061,,-6.1e-06,-6.1000000000000005
248.85299999999998,0.726433,-0.0063100000000000005,,-6.310000000000001e-06,-6.3100000000000005
248.91400000000002,0.723334,-0.0064340000000000005,,-6.434000000000001e-06,-6.434
248.97,0.720579,-0.006665000000000001,,-6.665000000000001e-06,-6.665000000000001
249.02700000000002,0.717825,-0.006889,,-6.889e-06,-6.888999999999999
249.084,0.715414,-0.007088,,-7.088e-06,-7.087999999999999
249.141,0.712832,-0.007256999999999999,,-7.2569999999999985e-06,-7.257000000000001
249.199,0.7100770000000001,-0.007453,,-7.453e-06,-7.452999999999999
249.25799999999998,0.70715,-0.007712,,-7.712e-06,-7.712000000000001
249.32299999999998,0.7042229999999999,-0.008118,,-8.118000000000001e-06,-8.118
249.38,0.701469,-0.008383,,-8.383e-06,-8.383
249.437,0.6987140000000001,-0.008693000000000001,,-8.693000000000001e-06,-8.693000000000001
249.49400000000003,0.695959,-0.009075,,-9.075e-06,-9.075
249.551,0.693377,-0.009557,,-9.557e-06,-9.557
249.606,0.6911390000000001,-0.010057,,-1.0057e-05,-10.057
249.66299999999998,0.688384,-0.010442,,-1.0442000000000001e-05,-10.442
249.72,0.685802,-0.010663,,-1.0663e-05,-10.662999999999998
249.77700000000002,0.682703,-0.0107,,-1.07e-05,-10.7
249.84099999999998,0.679604,-0.010594,,-1.0594e-05,-10.594000000000001
249.898,0.676333,-0.010208,,-1.0208e-05,-10.208
249.957,0.673061,-0.00975,,-9.75e-06,-9.75
250.014,0.669618,-0.009399,,-9.399e-06,-9.399
250.07,0.666691,-0.009323,,-9.323e-06,-9.323
250.127,0.663592,-0.009344,,-9.343999999999999e-06,-9.344
250.185,0.660665,-0.009385,,-9.385e-06,-9.385
250.24200000000002,0.657566,-0.009409,,-9.409e-06,-9.408999999999999
250.304,0.654295,-0.009502,,-9.502e-06,-9.502
250.361,0.6513680000000001,-0.009516,,-9.516e-06,-9.516
250.419,0.648269,-0.009544,,-9.544e-06,-9.544
250.479,0.644998,-0.009633,,-9.633e-06,-9.633
250.53900000000002,0.641899,-0.009702,,-9.702000000000001e-06,-9.701999999999998
250.595,0.6389729999999999,-0.009764,,-9.764e-06,-9.764
250.65599999999998,0.6357010000000001,-0.009836,,-9.836e-06,-9.836
250.71400000000003,0.63243,-0.009919,,-9.919e-06,-9.919
250.774,0.629159,-0.009998,,-9.998e-06,-9.998
250.833,0.626404,-0.010074,,-1.0074e-05,-10.074
250.89,0.623305,-0.010194,,-1.0194e-05,-10.194
250.94799999999998,0.6207229999999999,-0.010294,,-1.0294000000000002e-05,-10.294
251.01,0.61728,-0.010342,,-1.0342e-05,-10.342
251.067,0.614525,-0.010453,,-1.0453e-05,-10.453
251.125,0.61177,-0.010518,,-1.0518000000000003e-05,-10.517999999999999
251.183,0.608843,-0.01057,,-1.057e-05,-10.57
251.239,0.606089,-0.010577,,-1.0577e-05,-10.577
251.304,0.6028180000000001,-0.010725,,-1.0725e-05,-10.725
251.361,0.599891,-0.010738,,-1.0738e-05,-10.738
251.419,0.596964,-0.010752,,-1.0752e-05,-10.752
251.479,0.593865,-0.010783,,-1.0783e-05,-10.783
251.53599999999997,0.590766,-0.01079,,-1.0790000000000003e-05,-10.79
251.592,0.587839,-0.010855,,-1.0855e-05,-10.855
251.65,0.5850850000000001,-0.010897,,-1.0897e-05,-10.897
251.708,0.58233,-0.010935,,-1.0935e-05,-10.935
251.769,0.579059,-0.010948,,-1.0948e-05,-10.948
251.825,0.576476,-0.010962,,-1.0962e-05,-10.962000000000002
251.88299999999998,0.5737220000000001,-0.010952,,-1.0952000000000001e-05,-10.952
251.93900000000002,0.570623,-0.010907,,-1.0907e-05,-10.907
251.99599999999998,0.567868,-0.010924,,-1.0924e-05,-10.924000000000001
252.05200000000002,0.564941,-0.011014,,-1.1014000000000002e-05,-11.014000000000001
252.109,0.562359,-0.011083,,-1.1083e-05,-11.082999999999998
252.166,0.559604,-0.0111,,-1.11e-05,-11.1
252.22299999999998,0.5568489999999999,-0.011072,,-1.1072e-05,-11.072
252.28,0.5539229999999999,-0.011048,,-1.1048e-05,-11.048
252.33700000000002,0.550996,-0.011079,,-1.1079e-05,-11.079
252.394,0.548241,-0.011158,,-1.1158e-05,-11.158
252.449,0.5454859999999999,-0.011258,,-1.1258e-05,-11.258
252.505,0.5429039999999999,-0.011279,,-1.1279000000000003e-05,-11.279000000000002
252.56400000000002,0.540149,-0.011324,,-1.1324e-05,-11.324000000000002
252.622,0.53705,-0.011334,,-1.1334e-05,-11.334000000000001
252.68,0.5341229999999999,-0.011362,,-1.1362e-05,-11.362
252.74200000000002,0.531197,-0.011444,,-1.1444000000000001e-05,-11.444
252.8,0.528442,-0.011482,,-1.1482000000000001e-05,-11.482000000000001
252.861,0.525343,-0.011561,,-1.1561e-05,-11.561
252.922,0.522588,-0.011641,,-1.1641e-05,-11.640999999999998
252.977,0.519317,-0.011699,,-1.1699000000000001e-05,-11.699000000000002
253.03599999999997,0.516563,-0.011785,,-1.1784999999999996e-05,-11.784999999999998
253.09400000000002,0.513636,-0.011916,,-1.1916e-05,-11.915999999999999
253.153,0.510537,-0.012006,,-1.2006000000000003e-05,-12.005999999999998
253.21,0.508126,-0.012147,,-1.2147e-05,-12.147
253.266,0.505544,-0.012212,,-1.2212e-05,-12.212
253.324,0.502961,-0.012295,,-1.2295e-05,-12.295
253.389,0.499518,-0.012463,,-1.2462999999999999e-05,-12.463
253.447,0.496763,-0.01256,,-1.256e-05,-12.56
253.50900000000001,0.493492,-0.012691,,-1.2691e-05,-12.691
253.56599999999997,0.491082,-0.012787,,-1.2787e-05,-12.787
253.62400000000002,0.488155,-0.012859,,-1.2859000000000002e-05,-12.859000000000002
253.68,0.485228,-0.012918,,-1.2917999999999999e-05,-12.918
253.735,0.4823020000000001,-0.013056,,-1.3055999999999998e-05,-13.056
253.791,0.479547,-0.013204,,-1.3204000000000001e-05,-13.204
253.84900000000002,0.4769640000000001,-0.013304,,-1.3304000000000002e-05,-13.304
253.907,0.47421,-0.013366,,-1.3366e-05,-13.366
253.96599999999998,0.471455,-0.013416999999999998,,-1.3417e-05,-13.416999999999998
254.024,0.4687,-0.013424,,-1.3424e-05,-13.424000000000001
254.081,0.465601,-0.013403,,-1.3403e-05,-13.402999999999999
254.139,0.462675,-0.013386000000000002,,-1.3386000000000004e-05,-13.386000000000005
254.19799999999998,0.459403,-0.013355,,-1.3355e-05,-13.355
254.255,0.456649,-0.013331,,-1.3331000000000003e-05,-13.331
254.313,0.453722,-0.01329,,-1.329e-05,-13.29
254.37,0.450795,-0.013228,,-1.3228e-05,-13.228
254.426,0.448385,-0.013097,,-1.3096999999999997e-05,-13.097000000000001
254.483,0.445458,-0.012925,,-1.2925e-05,-12.925
254.542,0.4425310000000001,-0.012777,,-1.2777e-05,-12.777
254.59900000000002,0.439432,-0.012622,,-1.2622e-05,-12.622
254.65900000000002,0.436333,-0.012484,,-1.2484e-05,-12.484000000000002
254.717,0.433406,-0.012367,,-1.2367e-05,-12.367
254.774,0.430652,-0.012298,,-1.2298e-05,-12.298
254.831,0.427897,-0.012247,,-1.2247e-05,-12.247
254.887,0.425487,-0.012157,,-1.2157e-05,-12.157
254.94299999999998,0.4225600000000001,-0.012023,,-1.2023e-05,-12.023
255.0,0.419633,-0.011916,,-1.1916e-05,-11.915999999999999
255.062,0.416706,-0.011881999999999998,,-1.1882e-05,-11.881999999999998
255.12599999999998,0.413607,-0.011899,,-1.1899e-05,-11.899000000000001
255.183,0.410853,-0.011809,,-1.1809000000000002e-05,-11.809000000000001
255.24,0.407926,-0.011737,,-1.1737e-05,-11.737
255.3,0.404999,-0.011716,,-1.1716e-05,-11.716
255.362,0.402072,-0.01174,,-1.174e-05,-11.74
255.419,0.399318,-0.011713,,-1.1713e-05,-11.713
255.476,0.396219,-0.011754,,-1.1754e-05,-11.754
255.533,0.393636,-0.01182,,-1.182e-05,-11.82
255.58900000000003,0.390881,-0.011919,,-1.1919e-05,-11.919
255.646,0.388299,-0.011926,,-1.1925999999999999e-05,-11.925999999999998
255.704,0.385372,-0.011916,,-1.1916e-05,-11.915999999999999
255.761,0.382617,-0.011892,,-1.1892e-05,-11.892000000000001
255.81799999999998,0.379691,-0.011902,,-1.1902e-05,-11.902000000000001
255.88,0.376592,-0.011957,,-1.1957000000000001e-05,-11.957
255.938,0.373837,-0.011985,,-1.1985e-05,-11.985
255.995,0.371082,-0.012074,,-1.2074000000000002e-05,-12.074000000000002
256.052,0.368156,-0.012167,,-1.2167e-05,-12.167000000000002
256.10900000000004,0.365573,-0.012247,,-1.2247e-05,-12.247
256.166,0.362646,-0.012274,,-1.2274000000000001e-05,-12.274
256.223,0.359892,-0.012267,,-1.2267e-05,-12.267000000000001
256.28,0.357309,-0.012274,,-1.2274000000000001e-05,-12.274
256.336,0.354554,-0.01235,,-1.235e-05,-12.35
256.39099999999996,0.351628,-0.012498,,-1.2498e-05,-12.498
256.448,0.348873,-0.012574,,-1.2574e-05,-12.574000000000002
256.507,0.346118,-0.012618,,-1.2618e-05,-12.618
256.564,0.343191,-0.012618,,-1.2618e-05,-12.618
256.623,0.340609,-0.012639,,-1.2639e-05,-12.639000000000001
256.68,0.33768200000000004,-0.012618,,-1.2618e-05,-12.618
256.738,0.334927,-0.012653,,-1.2653e-05,-12.653
256.797,0.33200100000000005,-0.012701,,-1.2701e-05,-12.700999999999999
256.85400000000004,0.329246,-0.012791,,-1.2790999999999998e-05,-12.790999999999999
256.91,0.326319,-0.012887,,-1.2887e-05,-12.887
256.974,0.32322,-0.012873,,-1.2873e-05,-12.873
257.032,0.320293,-0.012946,,-1.2946e-05,-12.946000000000002
257.08799999999997,0.317539,-0.013011000000000002,,-1.3011e-05,-13.011
257.145,0.314612,-0.013011000000000002,,-1.3011e-05,-13.011
257.20099999999996,0.312202,-0.012966,,-1.2966e-05,-12.966
257.258,0.309275,-0.01299,,-1.299e-05,-12.99
257.316,0.30652,-0.013052,,-1.3052e-05,-13.052
257.374,0.303765,-0.013138,,-1.3138e-05,-13.138
257.431,0.300666,-0.013235,,-1.3235e-05,-13.235
257.492,0.297912,-0.013259,,-1.3259000000000001e-05,-13.259
257.548,0.294985,-0.013338,,-1.3337999999999997e-05,-13.338
257.607,0.29223000000000005,-0.013366,,-1.3366e-05,-13.366
257.665,0.289304,-0.013369,,-1.3369e-05,-13.369000000000002
257.723,0.286549,-0.013369,,-1.3369e-05,-13.369000000000002
257.782,0.28345,-0.013393,,-1.3393e-05,-13.392999999999999
257.84,0.280523,-0.0134,,-1.34e-05,-13.4
257.897,0.277941,-0.013445,,-1.3445e-05,-13.445
257.953,0.275014,-0.013544999999999998,,-1.3544999999999997e-05,-13.544999999999998
258.009,0.27260300000000004,-0.013645,,-1.3645e-05,-13.645
258.066,0.269677,-0.013651,,-1.3650999999999999e-05,-13.651
258.126,0.26675,-0.013686000000000002,,-1.3686000000000002e-05,-13.686000000000002
258.184,0.263651,-0.013686000000000002,,-1.3686000000000002e-05,-13.686000000000002
258.244,0.260724,-0.013731,,-1.3731e-05,-13.731
258.301,0.258142,-0.013713,,-1.3713e-05,-13.713
258.358,0.255387,-0.013748,,-1.3748e-05,-13.748
258.414,0.25246,-0.013861000000000002,,-1.3861000000000003e-05,-13.861000000000002
258.471,0.249705,-0.013961,,-1.3960999999999999e-05,-13.961000000000002
258.526,0.247123,-0.013985,,-1.3985e-05,-13.985
258.584,0.244368,-0.013992,,-1.3992000000000001e-05,-13.992
258.642,0.241441,-0.013999,,-1.3999e-05,-13.999
258.7,0.238687,-0.014016,,-1.4016e-05,-14.015999999999998
258.757,0.23576,-0.014085,,-1.4085e-05,-14.085
258.814,0.232833,-0.014188999999999997,,-1.4189000000000001e-05,-14.188999999999998
258.874,0.23007800000000006,-0.014251,,-1.4251e-05,-14.251
258.933,0.226979,-0.014313,,-1.4313e-05,-14.313
258.988,0.224569,-0.014374,,-1.4374000000000003e-05,-14.374
259.045,0.221642,-0.014363999999999997,,-1.4363999999999997e-05,-14.364
259.10200000000003,0.218716,-0.014354,,-1.4353999999999997e-05,-14.354000000000001
259.159,0.216133,-0.014381,,-1.4380999999999998e-05,-14.380999999999998
259.221,0.212862,-0.014433,,-1.4432999999999999e-05,-14.433000000000002
259.277,0.210279,-0.014512,,-1.4512e-05,-14.512
259.334,0.207353,-0.014625999999999997,,-1.4626e-05,-14.625999999999998
259.392,0.204254,-0.014715,,-1.4715e-05,-14.715
259.45,0.201671,-0.014784,,-1.4784e-05,-14.784
259.506,0.198916,-0.014784,,-1.4784e-05,-14.784
259.562,0.196334,-0.014774,,-1.4774e-05,-14.774
259.621,0.193235,-0.014832,,-1.4832e-05,-14.832
259.68,0.19048,-0.014901,,-1.4900999999999998e-05,-14.901
259.738,0.187726,-0.014998,,-1.4998e-05,-14.998
259.795,0.184627,-0.015122,,-1.5122e-05,-15.122
259.853,0.181872,-0.015246,,-1.5246e-05,-15.245999999999999
259.91,0.17929,-0.015328,,-1.5328e-05,-15.328
259.968,0.176535,-0.01538,,-1.5380000000000002e-05,-15.38
260.024,0.17378,-0.015383,,-1.5382999999999998e-05,-15.383
260.08099999999996,0.170853,-0.015438,,-1.5438e-05,-15.437999999999999
260.14,0.167754,-0.015513999999999997,,-1.5513999999999994e-05,-15.513999999999998
260.198,0.164828,-0.015614,,-1.5614e-05,-15.614
260.256,0.162073,-0.015731000000000002,,-1.5731000000000002e-05,-15.731000000000002
260.313,0.15931800000000002,-0.015859,,-1.5859000000000002e-05,-15.859000000000002
260.371,0.156564,-0.015941,,-1.5941e-05,-15.940999999999999
260.428,0.153981,-0.015986,,-1.5986e-05,-15.985999999999999
260.48400000000004,0.151054,-0.015983,,-1.5983e-05,-15.982999999999999
260.54,0.148128,-0.016044,,-1.6044e-05,-16.044
260.597,0.145201,-0.016168000000000002,,-1.6168000000000002e-05,-16.168000000000006
260.654,0.14244600000000002,-0.016306,,-1.6306e-05,-16.305999999999997
260.712,0.13986400000000002,-0.016427,,-1.6427e-05,-16.427
260.769,0.137281,-0.016489,,-1.6489e-05,-16.489
260.828,0.134354,-0.016578,,-1.6578e-05,-16.578
260.88599999999997,0.131427,-0.016623,,-1.6623e-05,-16.622999999999998
260.943,0.128501,-0.016651,,-1.6651e-05,-16.651
260.999,0.125574,-0.016725999999999998,,-1.6726e-05,-16.726
261.064,0.122475,-0.016812,,-1.6812e-05,-16.812
261.122,0.11972,-0.016867,,-1.6867e-05,-16.867
261.17900000000003,0.116621,-0.016967,,-1.6967000000000002e-05,-16.967
261.237,0.11403900000000003,-0.017081,,-1.7080999999999998e-05,-17.081
261.293,0.111284,-0.017215,,-1.7215e-05,-17.215
261.351,0.108529,-0.017297999999999997,,-1.7297999999999993e-05,-17.298
261.407,0.105947,-0.017329,,-1.7329e-05,-17.329
261.464,0.10302,-0.017384,,-1.7384e-05,-17.384
261.522,0.100093,-0.017487,,-1.7487e-05,-17.487000000000002
261.578,0.097339,-0.017653,,-1.7653e-05,-17.653
261.63599999999997,0.09424,-0.017821,,-1.7820999999999998e-05,-17.820999999999998
261.698,0.091313,-0.017962,,-1.7962000000000002e-05,-17.962
261.76,0.088386,-0.018121,,-1.8120999999999998e-05,-18.121
