time,potential,current1_mA,coll_current,current1,current1_muA
1604.845,0.107841,-0.000281,,-2.81e-07,-0.281
1604.906,0.111112,-0.000367,,-3.6700000000000004e-07,-0.36700000000000005
1604.967,0.114383,-0.000453,,-4.53e-07,-0.45299999999999996
1605.0279999999998,0.11731,-0.00055,,-5.5e-07,-0.55
1605.089,0.120409,-0.0006219999999999999,,-6.219999999999999e-07,-0.6219999999999999
1605.152,0.123508,-0.000729,,-7.29e-07,-0.7290000000000001
1605.214,0.126607,-0.000791,,-7.909999999999999e-07,-0.7909999999999999
1605.276,0.129878,-0.0008349999999999999,,-8.349999999999998e-07,-0.835
1605.3410000000001,0.133321,-0.000791,,-7.909999999999999e-07,-0.7909999999999999
1605.404,0.13659200000000002,-0.0008349999999999999,,-8.349999999999998e-07,-0.835
1605.467,0.13986400000000002,-0.000935,,-9.35e-07,-0.935
1605.531,0.14279,-0.001004,,-1.0039999999999998e-06,-1.004
1605.596,0.146234,-0.001087,,-1.087e-06,-1.087
1605.6589999999999,0.149333,-0.001076,,-1.076e-06,-1.0759999999999998
1605.726,0.152776,-0.001125,,-1.1249999999999998e-06,-1.125
1605.79,0.156219,-0.0012380000000000002,,-1.2380000000000005e-06,-1.2380000000000002
1605.8529999999998,0.15931800000000002,-0.001297,,-1.2969999999999998e-06,-1.297
1605.9160000000002,0.162589,-0.001297,,-1.2969999999999998e-06,-1.297
1605.979,0.165688,-0.001256,,-1.256e-06,-1.256
1606.04,0.168615,-0.001273,,-1.273e-06,-1.273
1606.101,0.17188599999999998,-0.00129,,-1.29e-06,-1.29
1606.165,0.17515799999999998,-0.001348,,-1.348e-06,-1.348
1606.2320000000002,0.178429,-0.001483,,-1.483e-06,-1.483
1606.295,0.181528,-0.0014789999999999998,,-1.4790000000000002e-06,-1.479
1606.358,0.184627,-0.001448,,-1.4480000000000004e-06,-1.4480000000000002
1606.42,0.187898,-0.001438,,-1.438e-06,-1.4380000000000002
1606.483,0.190997,-0.001441,,-1.4409999999999998e-06,-1.4409999999999998
1606.545,0.194268,-0.001493,,-1.4930000000000001e-06,-1.493
1606.615,0.197711,-0.001596,,-1.5959999999999998e-06,-1.5959999999999999
1606.6779999999999,0.20081,-0.001545,,-1.545e-06,-1.545
1606.741,0.204081,-0.001524,,-1.5240000000000001e-06,-1.524
1606.807,0.207008,-0.0016239999999999998,,-1.6239999999999996e-06,-1.624
1606.871,0.210107,-0.001686,,-1.686e-06,-1.686
1606.933,0.213551,-0.001689,,-1.689e-06,-1.689
1606.997,0.216822,-0.0016239999999999998,,-1.6239999999999996e-06,-1.624
1607.058,0.219749,-0.001607,,-1.6069999999999996e-06,-1.607
1607.122,0.222848,-0.001576,,-1.576e-06,-1.5759999999999998
1607.185,0.225947,-0.001638,,-1.6379999999999996e-06,-1.6380000000000001
1607.25,0.228873,-0.0017170000000000002,,-1.7170000000000005e-06,-1.7170000000000003
1607.3110000000001,0.232144,-0.00172,,-1.72e-06,-1.72
1607.372,0.235243,-0.0017170000000000002,,-1.7170000000000005e-06,-1.7170000000000003
1607.433,0.238342,-0.0017170000000000002,,-1.7170000000000005e-06,-1.7170000000000003
1607.496,0.241441,-0.0016579999999999998,,-1.6579999999999996e-06,-1.6579999999999997
1607.558,0.24454,-0.001631,,-1.631e-06,-1.6309999999999998
1607.622,0.247812,-0.00161,,-1.61e-06,-1.61
1607.685,0.250738,-0.0016649999999999998,,-1.6649999999999995e-06,-1.6649999999999998
1607.749,0.25401,-0.0017510000000000002,,-1.7510000000000005e-06,-1.751
1607.8129999999999,0.25745300000000004,-0.001765,,-1.7649999999999996e-06,-1.765
1607.878,0.26038,-0.0016760000000000002,,-1.676e-06,-1.6760000000000002
1607.941,0.263479,-0.001672,,-1.6719999999999996e-06,-1.672
1608.005,0.26675,-0.001727,,-1.727e-06,-1.7269999999999999
1608.0720000000001,0.270021,-0.001803,,-1.803e-06,-1.803
1608.1329999999998,0.27312,-0.001793,,-1.7929999999999996e-06,-1.7930000000000001
1608.1989999999998,0.276391,-0.0017,,-1.6999999999999996e-06,-1.7
1608.2620000000002,0.27949,-0.001703,,-1.703e-06,-1.703
1608.3239999999998,0.282589,-0.001741,,-1.741e-06,-1.741
1608.395,0.28620500000000004,-0.0017690000000000004,,-1.769e-06,-1.769
1608.4579999999999,0.289304,-0.001713,,-1.7130000000000002e-06,-1.713
1608.5220000000002,0.292403,-0.001696,,-1.696e-06,-1.696
1608.585,0.295329,-0.001755,,-1.755e-06,-1.755
1608.646,0.298256,-0.0017510000000000002,,-1.7510000000000005e-06,-1.751
1608.7089999999998,0.301527,-0.001789,,-1.7890000000000002e-06,-1.7890000000000001
1608.7720000000002,0.304798,-0.001789,,-1.7890000000000002e-06,-1.7890000000000001
1608.8339999999998,0.307897,-0.0017510000000000002,,-1.7510000000000005e-06,-1.751
1608.9,0.31116900000000003,-0.001641,,-1.641e-06,-1.641
1608.964,0.314095,-0.001655,,-1.655e-06,-1.655
1609.027,0.317367,-0.001707,,-1.707e-06,-1.7069999999999999
1609.088,0.320293,-0.0017170000000000002,,-1.7170000000000005e-06,-1.7170000000000003
1609.15,0.323392,-0.00172,,-1.72e-06,-1.72
1609.215,0.326664,-0.001651,,-1.6510000000000004e-06,-1.651
1609.276,0.32976300000000003,-0.001596,,-1.5959999999999998e-06,-1.5959999999999999
1609.3370000000002,0.332689,-0.001572,,-1.572e-06,-1.5719999999999998
1609.401,0.33578800000000003,-0.001507,,-1.507e-06,-1.507
1609.4660000000001,0.338887,-0.001552,,-1.552e-06,-1.5519999999999998
1609.529,0.341986,-0.00159,,-1.59e-06,-1.59
1609.592,0.345085,-0.001579,,-1.5789999999999996e-06,-1.579
1609.655,0.348356,-0.001521,,-1.521e-06,-1.521
1609.7179999999998,0.351455,-0.001435,,-1.4349999999999996e-06,-1.4349999999999998
1609.78,0.354554,-0.001373,,-1.373e-06,-1.3730000000000002
1609.845,0.357481,-0.001369,,-1.3690000000000001e-06,-1.369
1609.9089999999999,0.36058,-0.001428,,-1.4280000000000001e-06,-1.4280000000000002
1609.971,0.363851,-0.001424,,-1.4239999999999996e-06,-1.4240000000000002
1610.0410000000002,0.367295,-0.001256,,-1.256e-06,-1.256
1610.1029999999998,0.370221,-0.001231,,-1.2310000000000002e-06,-1.2309999999999999
1610.1660000000002,0.373148,-0.001249,,-1.249e-06,-1.249
1610.2279999999998,0.376592,-0.001273,,-1.273e-06,-1.273
1610.2910000000002,0.379518,-0.001269,,-1.269e-06,-1.2690000000000001
1610.352,0.382445,-0.001245,,-1.245e-06,-1.245
1610.414,0.385372,-0.001204,,-1.204e-06,-1.204
1610.4779999999998,0.388643,-0.001097,,-1.097e-06,-1.0970000000000002
1610.5420000000001,0.391914,-0.001008,,-1.008e-06,-1.008
1610.6070000000002,0.395013,-0.001025,,-1.025e-06,-1.025
1610.6689999999999,0.398285,-0.001025,,-1.025e-06,-1.025
1610.734,0.401211,-0.001011,,-1.011e-06,-1.011
1610.797,0.404483,-0.000915,,-9.15e-07,-0.915
1610.862,0.407754,-0.0007769999999999999,,-7.769999999999998e-07,-0.7769999999999999
1610.925,0.410853,-0.000732,,-7.32e-07,-0.732
1610.9879999999998,0.413952,-0.000742,,-7.420000000000002e-07,-0.742
1611.0520000000001,0.417051,-0.000715,,-7.15e-07,-0.7150000000000001
1611.1129999999998,0.419977,-0.0006389999999999999,,-6.389999999999999e-07,-0.6389999999999999
1611.1770000000001,0.423076,-0.000522,,-5.22e-07,-0.522
1611.239,0.426003,-0.000384,,-3.84e-07,-0.384
1611.3020000000001,0.42893,-0.000236,,-2.3600000000000002e-07,-0.23600000000000002
1611.3629999999998,0.432029,-0.000112,,-1.12e-07,-0.11200000000000003
1611.425,0.435128,5e-06,,5e-09,0.005
1611.487,0.438399,0.000115,,1.1499999999999997e-07,0.115
1611.5479999999998,0.441326,0.000225,,2.25e-07,0.225
1611.611,0.444253,0.000335,,3.35e-07,0.335
1611.674,0.44718,0.000456,,4.56e-07,0.456
1611.735,0.4501060000000001,0.000614,,6.14e-07,0.614
1611.7979999999998,0.453205,0.000814,,8.140000000000002e-07,0.8140000000000001
1611.861,0.45596,0.001007,,1.007e-06,1.007
1611.9260000000002,0.459403,0.001131,,1.1309999999999998e-06,1.131
1611.989,0.462675,0.001206,,1.206e-06,1.206
1612.0520000000001,0.465429,0.001268,,1.268e-06,1.268
1612.121,0.4683560000000001,0.0014199999999999998,,1.4199999999999995e-06,1.42
1612.203,0.472488,0.001551,,1.5509999999999998e-06,1.5510000000000002
1612.2679999999998,0.4759310000000001,0.001558,,1.5580000000000002e-06,1.5579999999999998
1612.3339999999998,0.479203,0.001516,,1.516e-06,1.516
1612.398,0.482129,0.001568,,1.568e-06,1.568
1612.4589999999998,0.485056,0.001578,,1.5780000000000002e-06,1.578
1612.521,0.4883270000000001,0.001592,,1.5920000000000004e-06,1.5919999999999999
1612.5839999999998,0.491426,0.001589,,1.5890000000000004e-06,1.5890000000000002
1612.648,0.495042,0.001506,,1.5059999999999999e-06,1.506
1612.7089999999998,0.497969,0.001434,,1.4340000000000002e-06,1.4340000000000002
1612.771,0.5010680000000001,0.001375,,1.375e-06,1.375
1612.835,0.504167,0.00131,,1.31e-06,1.31
1612.898,0.507093,0.001303,,1.3029999999999998e-06,1.3030000000000002
1612.9620000000002,0.510365,0.001334,,1.3339999999999998e-06,1.334
1613.026,0.513808,0.001282,,1.282e-06,1.2819999999999998
1613.089,0.517079,0.001193,,1.193e-06,1.193
1613.1529999999998,0.520178,0.001124,,1.124e-06,1.124
1613.2179999999998,0.523105,0.001138,,1.1380000000000002e-06,1.138
1613.2820000000002,0.5263760000000001,0.001175,,1.175e-06,1.175
1613.345,0.5298189999999999,0.001169,,1.1690000000000002e-06,1.1689999999999998
1613.412,0.53309,0.001041,,1.0409999999999999e-06,1.041
1613.477,0.536189,0.001048,,1.0480000000000002e-06,1.048
1613.543,0.539633,0.001124,,1.124e-06,1.124
1613.61,0.543076,0.001045,,1.045e-06,1.045
1613.6729999999998,0.546175,0.00101,,1.01e-06,1.01
1613.736,0.5492739999999999,0.001017,,1.017e-06,1.0170000000000001
1613.799,0.552373,0.001072,,1.072e-06,1.072
1613.862,0.5556439999999999,0.001134,,1.134e-06,1.134
1613.9229999999998,0.558571,0.001141,,1.1410000000000002e-06,1.141
1613.987,0.562014,0.00112,,1.12e-06,1.12
1614.0510000000002,0.565113,0.001052,,1.052e-06,1.052
1614.115,0.5682119999999999,0.001048,,1.0480000000000002e-06,1.048
1614.1779999999999,0.5711390000000001,0.001093,,1.093e-06,1.093
1614.2420000000002,0.5744100000000001,0.001172,,1.1720000000000002e-06,1.1720000000000002
1614.305,0.577681,0.001189,,1.189e-06,1.189
1614.366,0.58078,0.001179,,1.179e-06,1.1789999999999998
1614.4270000000001,0.583879,0.0011619999999999998,,1.1619999999999998e-06,1.162
1614.49,0.586806,0.00112,,1.12e-06,1.12
1614.5529999999999,0.5900770000000001,0.001093,,1.093e-06,1.093
1614.6170000000002,0.592832,0.001124,,1.124e-06,1.124
1614.683,0.596275,0.00122,,1.22e-06,1.22
1614.746,0.599547,0.001203,,1.203e-06,1.2029999999999998
1614.81,0.6028180000000001,0.001151,,1.151e-06,1.1509999999999998
1614.8729999999998,0.605917,0.00111,,1.11e-06,1.11
1614.935,0.608843,0.001107,,1.1070000000000002e-06,1.1070000000000002
1614.9979999999998,0.611942,0.001134,,1.134e-06,1.134
1615.0610000000001,0.614869,0.001165,,1.165e-06,1.165
1615.122,0.6181399999999999,0.001165,,1.165e-06,1.165
1615.1870000000001,0.6217560000000001,0.001124,,1.124e-06,1.124
1615.25,0.624683,0.001048,,1.0480000000000002e-06,1.048
1615.3139999999999,0.627782,0.000983,,9.83e-07,0.983
1615.3770000000002,0.630881,0.001007,,1.007e-06,1.007
1615.4379999999999,0.63398,0.000993,,9.93e-07,0.993
1615.499,0.637079,0.001003,,1.003e-06,1.003
1615.567,0.640522,0.001003,,1.003e-06,1.003
1615.628,0.643621,0.000952,,9.520000000000001e-07,0.9520000000000001
1615.694,0.646892,0.000869,,8.690000000000001e-07,0.8690000000000001
1615.757,0.649647,0.0008619999999999999,,8.620000000000001e-07,0.8619999999999999
1615.819,0.652746,0.000872,,8.720000000000002e-07,0.8720000000000001
1615.8870000000002,0.656361,0.000917,,9.170000000000001e-07,0.917
1615.9470000000001,0.659288,0.0009,,9.000000000000001e-07,0.9
1616.009,0.6627310000000001,0.0008619999999999999,,8.620000000000001e-07,0.8619999999999999
1616.0710000000001,0.665658,0.0008039999999999999,,8.039999999999998e-07,0.8039999999999999
1616.134,0.6687569999999999,0.000773,,7.729999999999999e-07,0.773
1616.203,0.672028,0.000914,,9.14e-07,0.914
1616.2679999999998,0.6754720000000001,0.000962,,9.62e-07,0.9620000000000001
1616.332,0.678399,0.001083,,1.083e-06,1.083
1616.395,0.681325,0.001327,,1.327e-06,1.327
1616.4560000000001,0.6842520000000001,0.001592,,1.5920000000000004e-06,1.5919999999999999
1616.519,0.6870069999999999,0.001871,,1.871e-06,1.871
1616.5839999999998,0.690278,0.002105,,2.105e-06,2.105
1616.648,0.693549,0.002133,,2.133e-06,2.133
1616.7120000000002,0.69682,0.001954,,1.9540000000000003e-06,1.954
1616.776,0.699919,0.0017640000000000004,,1.7640000000000004e-06,1.7640000000000002
1616.8370000000002,0.702674,0.001592,,1.5920000000000004e-06,1.5919999999999999
1616.9,0.7059449999999999,0.001465,,1.465e-06,1.465
1616.9620000000002,0.709216,0.001337,,1.337e-06,1.337
1617.023,0.7121430000000001,0.001227,,1.227e-06,1.227
1617.0870000000002,0.7155859999999999,0.00111,,1.11e-06,1.11
1617.15,0.7190300000000001,0.000972,,9.720000000000002e-07,0.972
1617.214,0.721957,0.0008449999999999999,,8.45e-07,0.845
1617.276,0.725056,0.0008039999999999999,,8.039999999999998e-07,0.8039999999999999
1617.34,0.7283270000000001,0.0008449999999999999,,8.45e-07,0.845
1617.405,0.731598,0.000869,,8.690000000000001e-07,0.8690000000000001
1617.4679999999998,0.734869,0.000828,,8.28e-07,0.828
1617.529,0.7379680000000001,0.0008039999999999999,,8.039999999999998e-07,0.8039999999999999
1617.592,0.740895,0.000769,,7.690000000000002e-07,0.769
1617.656,0.7439939999999999,0.000786,,7.86e-07,0.7859999999999999
1617.72,0.747093,0.0008900000000000002,,8.900000000000002e-07,0.89
1617.783,0.750364,0.000983,,9.83e-07,0.983
1617.846,0.753635,0.001027,,1.027e-06,1.0270000000000001
1617.908,0.756562,0.001052,,1.052e-06,1.052
1617.971,0.7596609999999999,0.001052,,1.052e-06,1.052
1618.033,0.76276,0.001083,,1.083e-06,1.083
1618.096,0.7658590000000001,0.001155,,1.155e-06,1.155
1618.1589999999999,0.768786,0.001289,,1.289e-06,1.2890000000000001
1618.224,0.772057,0.001417,,1.4170000000000004e-06,1.4169999999999998
1618.2879999999998,0.7751560000000001,0.0014470000000000002,,1.4469999999999999e-06,1.4469999999999998
1618.351,0.778255,0.001451,,1.451e-06,1.4509999999999998
1618.415,0.781354,0.001489,,1.489e-06,1.489
1618.475,0.784453,0.0015539999999999998,,1.554e-06,1.5539999999999998
1618.536,0.787207,0.001623,,1.6230000000000004e-06,1.6230000000000002
1618.601,0.790479,0.001775,,1.7750000000000004e-06,1.775
1618.665,0.793578,0.00184,,1.84e-06,1.84
1618.734,0.796849,0.001761,,1.761e-06,1.761
1618.797,0.799948,0.001819,,1.819e-06,1.819
1618.859,0.802875,0.001892,,1.8920000000000005e-06,1.892
1618.922,0.806318,0.001985,,1.985e-06,1.9850000000000003
1618.985,0.809245,0.002012,,2.012e-06,2.012
1619.046,0.812344,0.002019,,2.019e-06,2.019
1619.111,0.815443,0.00194,,1.94e-06,1.94
1619.175,0.818714,0.001943,,1.9430000000000003e-06,1.943
1619.241,0.8219850000000001,0.00206,,2.06e-06,2.06
1619.305,0.825084,0.002095,,2.0950000000000003e-06,2.095
1619.368,0.828183,0.0020670000000000003,,2.0670000000000003e-06,2.0669999999999997
1619.432,0.8314540000000001,0.002002,,2.002e-06,2.002
1619.493,0.8343809999999999,0.001995,,1.995e-06,1.995
1619.556,0.8374799999999999,0.001998,,1.998e-06,1.998
1619.62,0.840751,0.002115,,2.115e-06,2.115
1619.684,0.8440219999999999,0.002146,,2.146e-06,2.146
1619.751,0.8471209999999999,0.00205,,2.0500000000000003e-06,2.0500000000000003
1619.8129999999999,0.850392,0.002033,,2.0330000000000003e-06,2.0329999999999995
1619.876,0.853319,0.002043,,2.043e-06,2.043
1619.9379999999999,0.856418,0.002088,,2.088e-06,2.088
1620.014,0.8603780000000001,0.00205,,2.0500000000000003e-06,2.0500000000000003
1620.075,0.8633049999999999,0.002064,,2.064e-06,2.064
1620.136,0.866232,0.002085,,2.085e-06,2.085
1620.1989999999998,0.869331,0.002146,,2.146e-06,2.146
1620.261,0.872602,0.002212,,2.2119999999999997e-06,2.2119999999999997
1620.3239999999998,0.8755290000000001,0.002239,,2.239e-06,2.2390000000000003
1620.3870000000002,0.8784549999999999,0.002229,,2.229e-06,2.229
1620.4470000000001,0.881727,0.002229,,2.229e-06,2.229
1620.51,0.884653,0.002202,,2.202e-06,2.202
1620.5720000000001,0.8880969999999999,0.002195,,2.195e-06,2.195
1620.639,0.8911959999999999,0.002291,,2.2909999999999997e-06,2.291
1620.7020000000002,0.89154,0.001172,,1.1720000000000002e-06,1.1720000000000002
1620.764,0.889474,0.000225,,2.25e-07,0.225
1620.826,0.8877520000000001,-6e-06,,-6e-09,-0.006
1620.889,0.885342,-0.000216,,-2.1600000000000005e-07,-0.21600000000000005
1620.953,0.8829319999999999,-0.000377,,-3.7700000000000005e-07,-0.377
1621.019,0.8803489999999999,-0.000412,,-4.1200000000000004e-07,-0.41200000000000003
1621.0829999999999,0.877767,-0.000439,,-4.39e-07,-0.439
1621.144,0.8750120000000001,-0.000508,,-5.079999999999999e-07,-0.508
1621.2060000000001,0.8724299999999999,-0.000591,,-5.91e-07,-0.5910000000000001
1621.27,0.869503,-0.000715,,-7.15e-07,-0.7150000000000001
1621.3329999999999,0.866748,-0.0008039999999999999,,-8.039999999999998e-07,-0.8039999999999999
1621.406,0.863477,-0.000739,,-7.389999999999998e-07,-0.7390000000000001
1621.47,0.8603780000000001,-0.000849,,-8.49e-07,-0.8490000000000001
1621.5339999999999,0.8576229999999999,-0.000932,,-9.32e-07,-0.932
1621.598,0.8546959999999999,-0.000922,,-9.22e-07,-0.922
1621.662,0.851425,-0.000884,,-8.84e-07,-0.884
1621.725,0.848326,-0.000901,,-9.009999999999999e-07,-0.9009999999999999
1621.789,0.8454,-0.00099,,-9.9e-07,-0.99
1621.85,0.8424729999999999,-0.001059,,-1.0590000000000002e-06,-1.0590000000000002
1621.918,0.839374,-0.00107,,-1.07e-06,-1.07
1621.981,0.836275,-0.001052,,-1.052e-06,-1.052
1622.043,0.833176,-0.001052,,-1.052e-06,-1.052
1622.105,0.830249,-0.00108,,-1.08e-06,-1.08
1622.1670000000001,0.82715,-0.001142,,-1.142e-06,-1.1420000000000001
1622.229,0.8242229999999999,-0.0012109999999999998,,-1.211e-06,-1.211
1622.2920000000001,0.8212959999999999,-0.001293,,-1.2930000000000002e-06,-1.2930000000000001
1622.362,0.818025,-0.0012380000000000002,,-1.2380000000000005e-06,-1.2380000000000002
1622.425,0.814926,-0.001259,,-1.2590000000000001e-06,-1.2590000000000001
1622.49,0.811483,-0.001379,,-1.379e-06,-1.379
1622.5529999999999,0.808556,-0.001476,,-1.476e-06,-1.476
1622.6170000000002,0.805629,-0.001517,,-1.5169999999999996e-06,-1.517
1622.6860000000001,0.802014,-0.001466,,-1.466e-06,-1.466
1622.75,0.799087,-0.0016,,-1.6e-06,-1.6
1622.8139999999999,0.795816,-0.0017239999999999998,,-1.7240000000000001e-06,-1.7239999999999998
1622.876,0.7928890000000001,-0.001782,,-1.7819999999999998e-06,-1.7819999999999998
1622.9370000000001,0.7899619999999999,-0.001851,,-1.851e-06,-1.851
1622.999,0.786863,-0.001896,,-1.896e-06,-1.896
1623.0610000000001,0.783936,-0.001924,,-1.924e-06,-1.9240000000000002
1623.126,0.780837,-0.001996,,-1.996e-06,-1.996
1623.2079999999999,0.776877,-0.002137,,-2.137e-06,-2.137
1623.271,0.774123,-0.002289,,-2.2890000000000004e-06,-2.289
1623.332,0.771196,-0.002392,,-2.3919999999999997e-06,-2.392
1623.396,0.767925,-0.0025050000000000003,,-2.505e-06,-2.5050000000000003
1623.46,0.764826,-0.002543,,-2.543e-06,-2.543
1623.523,0.761727,-0.002574,,-2.574e-06,-2.574
1623.586,0.758628,-0.00265,,-2.65e-06,-2.65
1623.649,0.7558729999999999,-0.002777,,-2.777e-06,-2.7769999999999997
1623.711,0.752602,-0.002912,,-2.912e-06,-2.912
1623.775,0.749675,-0.003025,,-3.025e-06,-3.025
1623.838,0.746576,-0.003074,,-3.074e-06,-3.074
1623.9,0.743822,-0.003122,,-3.122e-06,-3.122
1623.9620000000002,0.7407229999999999,-0.003156,,-3.1560000000000004e-06,-3.156
1624.035,0.737279,-0.003339,,-3.3389999999999997e-06,-3.339
1624.0970000000002,0.73418,-0.003414,,-3.414e-06,-3.4139999999999997
1624.16,0.7312529999999999,-0.003449,,-3.4490000000000008e-06,-3.4490000000000003
1624.2220000000002,0.728155,-0.003487,,-3.487e-06,-3.487
1624.285,0.725056,-0.003556,,-3.5560000000000008e-06,-3.556
1624.348,0.722301,-0.003669,,-3.669e-06,-3.6689999999999996
1624.4089999999999,0.719374,-0.003783,,-3.783e-06,-3.783
1624.47,0.716619,-0.003928,,-3.928e-06,-3.928
1624.533,0.7135199999999999,-0.004107,,-4.1070000000000015e-06,-4.107
1624.598,0.710249,-0.004258,,-4.258e-06,-4.258
1624.662,0.70715,-0.004358,,-4.3580000000000005e-06,-4.3580000000000005
1624.724,0.7042229999999999,-0.004509,,-4.5089999999999995e-06,-4.5089999999999995
1624.787,0.701469,-0.0047020000000000005,,-4.702e-06,-4.702000000000001
1624.85,0.6983699999999999,-0.004961,,-4.961e-06,-4.961
1624.914,0.695443,-0.0052840000000000005,,-5.2840000000000006e-06,-5.284000000000002
1624.986,0.6920000000000001,-0.00547,,-5.47e-06,-5.47
1625.0510000000002,0.6890729999999999,-0.005704,,-5.704e-06,-5.704
1625.115,0.685974,-0.005808,,-5.807999999999999e-06,-5.808
1625.1770000000001,0.682875,-0.005711,,-5.711e-06,-5.711
