time,potential,current1_mA,coll_current,current1,current1_muA
607.036,0.078573,-0.010346,,-1.0346e-05,-10.345999999999998
607.095,0.081499,-0.010236,,-1.0236e-05,-10.236
607.155,0.084426,-0.010153,,-1.0153e-05,-10.152999999999999
607.216,0.087525,-0.010112,,-1.0112e-05,-10.112000000000002
607.273,0.090452,-0.010112,,-1.0112e-05,-10.112000000000002
607.3330000000001,0.093551,-0.010098,,-1.0097999999999999e-05,-10.097999999999999
607.3919999999999,0.096478,-0.010081,,-1.0081e-05,-10.081
607.45,0.099405,-0.010088,,-1.0088e-05,-10.088
607.507,0.102504,-0.010094,,-1.0094e-05,-10.094
607.564,0.10543,-0.010043,,-1.0043e-05,-10.043
607.621,0.108529,-0.009981,,-9.981e-06,-9.981
607.679,0.111284,-0.009929,,-9.929e-06,-9.929
607.738,0.114383,-0.009898,,-9.897999999999999e-06,-9.898
607.797,0.116966,-0.009871,,-9.871000000000001e-06,-9.871
607.857,0.120065,-0.00984,,-9.84e-06,-9.84
607.915,0.122819,-0.009812,,-9.812000000000004e-06,-9.812
607.972,0.125574,-0.009809,,-9.809e-06,-9.809
608.031,0.128501,-0.009788,,-9.788e-06,-9.788
608.09,0.1316,-0.009767,,-9.767e-06,-9.767000000000001
608.149,0.134699,-0.009757,,-9.757e-06,-9.757
608.207,0.137625,-0.009743,,-9.743e-06,-9.743
608.2669999999999,0.140724,-0.009723,,-9.723e-06,-9.722999999999999
608.325,0.143479,-0.009695,,-9.695e-06,-9.695
608.385,0.146578,-0.009657,,-9.657000000000001e-06,-9.656999999999998
608.442,0.149505,-0.009595,,-9.595e-06,-9.595
608.501,0.152604,-0.00955,,-9.55e-06,-9.55
608.56,0.155186,-0.009495,,-9.495e-06,-9.495
608.622,0.15828499999999998,-0.009492,,-9.492e-06,-9.492
608.68,0.161384,-0.009423,,-9.423e-06,-9.423
608.739,0.164483,-0.009361,,-9.361e-06,-9.361
608.797,0.16706600000000002,-0.009299,,-9.299e-06,-9.299
608.855,0.16982,-0.009247,,-9.247e-06,-9.247
608.913,0.172747,-0.00922,,-9.220000000000003e-06,-9.22
608.972,0.175502,-0.009185,,-9.185e-06,-9.185
609.0319999999999,0.178601,-0.009148,,-9.148e-06,-9.148
609.09,0.181356,-0.009141,,-9.141e-06,-9.141
609.1469999999999,0.18411,-0.009144,,-9.144e-06,-9.144
609.2080000000001,0.187209,-0.009086,,-9.086e-06,-9.086
609.2669999999999,0.190308,-0.009061,,-9.061e-06,-9.061
609.325,0.193063,-0.009024,,-9.024e-06,-9.024
609.384,0.196162,-0.008975,,-8.975e-06,-8.975
609.441,0.198744,-0.008879000000000001,,-8.879000000000001e-06,-8.879000000000003
609.5,0.201843,-0.008803,,-8.803e-06,-8.802999999999999
609.559,0.204598,-0.008727,,-8.727e-06,-8.727
609.618,0.207697,-0.008655,,-8.655e-06,-8.655
609.677,0.210624,-0.008583,,-8.582999999999999e-06,-8.583
609.737,0.213551,-0.008520999999999999,,-8.520999999999999e-06,-8.520999999999999
609.7959999999999,0.216477,-0.008442,,-8.442e-06,-8.442
609.8530000000001,0.219404,-0.008393000000000001,,-8.392999999999999e-06,-8.392999999999999
609.911,0.222331,-0.008362,,-8.361999999999999e-06,-8.362
609.97,0.225086,-0.008311,,-8.311e-06,-8.311
610.0319999999999,0.228185,-0.008204000000000001,,-8.204000000000001e-06,-8.204
610.089,0.230939,-0.008187,,-8.187e-06,-8.187000000000001
610.1469999999999,0.233866,-0.008166,,-8.166e-06,-8.166
610.206,0.236793,-0.008108,,-8.108000000000001e-06,-8.107999999999999
610.265,0.239548,-0.008053,,-8.052999999999999e-06,-8.052999999999999
610.332,0.243163,-0.007867,,-7.867000000000001e-06,-7.867000000000001
610.391,0.245746,-0.007818,,-7.818e-06,-7.818
610.45,0.249017,-0.00777,,-7.77e-06,-7.77
610.513,0.251944,-0.0076739999999999985,,-7.674e-06,-7.673999999999999
610.571,0.25487,-0.007643,,-7.643000000000001e-06,-7.643000000000002
610.63,0.257797,-0.007612000000000002,,-7.612000000000002e-06,-7.612000000000001
610.69,0.260896,-0.00755,,-7.55e-06,-7.550000000000002
610.754,0.263651,-0.0074909999999999985,,-7.490999999999998e-06,-7.4910000000000005
610.819,0.266922,-0.007453,,-7.453e-06,-7.452999999999999
610.877,0.270021,-0.0073599999999999985,,-7.359999999999998e-06,-7.3599999999999985
610.936,0.272948,-0.007281,,-7.281e-06,-7.2810000000000015
610.999,0.276047,-0.007273999999999998,,-7.2739999999999985e-06,-7.273999999999999
611.056,0.278801,-0.007161,,-7.1610000000000006e-06,-7.1610000000000005
611.115,0.28172800000000003,-0.007088,,-7.088e-06,-7.087999999999999
611.174,0.284655,-0.00702,,-7.020000000000001e-06,-7.0200000000000005
611.232,0.287582,-0.006968000000000001,,-6.968000000000002e-06,-6.968000000000001
611.294,0.290681,-0.006889,,-6.889e-06,-6.888999999999999
611.354,0.29378000000000004,-0.006813,,-6.813e-06,-6.813
611.413,0.296534,-0.006744,,-6.744e-06,-6.744
611.472,0.29946100000000003,-0.006679000000000001,,-6.679000000000002e-06,-6.679000000000001
611.529,0.302216,-0.006658,,-6.658e-06,-6.658
611.5880000000001,0.305315,-0.0066170000000000005,,-6.617e-06,-6.617000000000001
611.646,0.308242,-0.006569,,-6.569e-06,-6.569
611.705,0.310996,-0.006495999999999999,,-6.4959999999999985e-06,-6.496
611.768,0.314095,-0.006376,,-6.3760000000000004e-06,-6.376
611.827,0.31719400000000003,-0.0063170000000000006,,-6.3170000000000015e-06,-6.317
611.887,0.320121,-0.006241,,-6.241e-06,-6.2410000000000005
611.945,0.322876,-0.006186,,-6.1860000000000006e-06,-6.186
612.003,0.325803,-0.006104,,-6.1039999999999995e-06,-6.104
612.06,0.328385,-0.00598,,-5.98e-06,-5.98
612.117,0.331312,-0.005852,,-5.852e-06,-5.852
612.177,0.334239,-0.00577,,-5.77e-06,-5.77
612.237,0.337338,-0.005684000000000001,,-5.684000000000002e-06,-5.684000000000001
612.2959999999999,0.340265,-0.005591,,-5.591e-06,-5.590999999999998
612.359,0.343364,-0.005536,,-5.536e-06,-5.5360000000000005
612.418,0.346118,-0.005463,,-5.462999999999999e-06,-5.462999999999999
612.477,0.349045,-0.00536,,-5.36e-06,-5.36
612.5369999999999,0.351972,-0.005277,,-5.2770000000000005e-06,-5.277
612.596,0.355243,-0.005184,,-5.184e-06,-5.184
612.655,0.357998,-0.005102000000000001,,-5.102e-06,-5.102
612.712,0.36058,-0.00505,,-5.05e-06,-5.05
612.7719999999999,0.363679,-0.004971,,-4.971e-06,-4.971
612.831,0.366778,-0.004912,,-4.912e-06,-4.912
612.89,0.369533,-0.004864,,-4.8639999999999995e-06,-4.864
612.9490000000001,0.37246,-0.004806,,-4.806e-06,-4.806
613.008,0.375386,-0.004754,,-4.754e-06,-4.754
613.067,0.378313,-0.004699,,-4.698999999999999e-06,-4.699
613.124,0.380896,-0.00464,,-4.64e-06,-4.64
613.181,0.383823,-0.004534000000000001,,-4.534000000000002e-06,-4.534000000000002
613.241,0.386922,-0.004444,,-4.444e-06,-4.444
613.3009999999999,0.389848,-0.004361,,-4.361e-06,-4.3610000000000015
613.36,0.392947,-0.004265,,-4.265e-06,-4.265
613.42,0.395874,-0.004169,,-4.168999999999999e-06,-4.169
613.4780000000001,0.398801,-0.004045,,-4.045e-06,-4.045
613.538,0.401728,-0.003954999999999999,,-3.9549999999999986e-06,-3.9549999999999987
613.596,0.404483,-0.003831,,-3.831e-06,-3.831
613.656,0.407581,-0.003728,,-3.728e-06,-3.728
613.715,0.410336,-0.003621,,-3.621e-06,-3.6210000000000004
613.774,0.413263,-0.003511,,-3.5110000000000004e-06,-3.511
613.8340000000001,0.4160180000000001,-0.003401,,-3.401e-06,-3.4010000000000002
613.891,0.418772,-0.003318,,-3.3180000000000003e-06,-3.318
613.95,0.421871,-0.003208,,-3.208e-06,-3.208
614.009,0.424626,-0.003084,,-3.0839999999999996e-06,-3.0839999999999996
614.068,0.427553,-0.0029460000000000003,,-2.9460000000000007e-06,-2.946
614.125,0.43048,-0.002805,,-2.805e-06,-2.805
614.183,0.433234,-0.002616,,-2.616e-06,-2.616
614.242,0.435989,-0.00243,,-2.43e-06,-2.43
614.3009999999999,0.439088,-0.002227,,-2.227e-06,-2.227
614.359,0.441843,-0.001999,,-1.9990000000000003e-06,-1.999
614.424,0.444769,-0.001862,,-1.862e-06,-1.8619999999999999
614.481,0.447696,-0.001631,,-1.631e-06,-1.6309999999999998
614.538,0.4504510000000001,-0.001397,,-1.397e-06,-1.3969999999999998
614.599,0.453378,-0.001218,,-1.2179999999999998e-06,-1.218
614.6569999999999,0.456304,-0.001018,,-1.018e-06,-1.018
614.717,0.459059,-0.000842,,-8.419999999999998e-07,-0.8420000000000001
614.7769999999999,0.4618140000000001,-0.0006940000000000001,,-6.94e-07,-0.6940000000000001
614.8340000000001,0.464568,-0.000567,,-5.67e-07,-0.5670000000000001
614.894,0.467495,-0.0004570000000000001,,-4.57e-07,-0.4570000000000001
614.9540000000001,0.470422,-0.000367,,-3.6700000000000004e-07,-0.36700000000000005
615.013,0.473349,-0.000305,,-3.05e-07,-0.305
615.072,0.476276,-0.000278,,-2.7800000000000003e-07,-0.278
615.129,0.479203,-0.000295,,-2.9500000000000003e-07,-0.29500000000000004
615.188,0.482129,-0.000295,,-2.9500000000000003e-07,-0.29500000000000004
615.246,0.4854,-0.000312,,-3.12e-07,-0.312
615.31,0.4883270000000001,-0.000291,,-2.9100000000000005e-07,-0.29100000000000004
615.37,0.491254,-0.000322,,-3.2200000000000005e-07,-0.322
615.429,0.494353,-0.000371,,-3.71e-07,-0.371
615.488,0.49728,-0.000426,,-4.2600000000000003e-07,-0.426
615.545,0.500379,-0.000474,,-4.74e-07,-0.474
615.605,0.503306,-0.000522,,-5.22e-07,-0.522
615.663,0.506405,-0.000546,,-5.46e-07,-0.546
615.7230000000001,0.509504,-0.000588,,-5.88e-07,-0.588
615.783,0.5126029999999999,-0.000629,,-6.29e-07,-0.629
615.842,0.515702,-0.000653,,-6.529999999999999e-07,-0.653
615.91,0.518456,-0.000663,,-6.629999999999999e-07,-0.6629999999999999
615.971,0.521728,-0.000677,,-6.769999999999999e-07,-0.6769999999999999
616.031,0.524826,-0.000705,,-7.05e-07,-0.705
616.09,0.5275810000000001,-0.000732,,-7.32e-07,-0.732
616.15,0.530508,-0.000746,,-7.459999999999999e-07,-0.746
616.207,0.533779,-0.000787,,-7.87e-07,-0.787
616.266,0.5365340000000001,-0.000794,,-7.94e-07,-0.794
616.325,0.539805,-0.000794,,-7.94e-07,-0.794
616.383,0.542732,-0.000773,,-7.729999999999999e-07,-0.773
616.441,0.545659,-0.000729,,-7.29e-07,-0.7290000000000001
616.499,0.548585,-0.000687,,-6.87e-07,-0.687
616.557,0.5513399999999999,-0.0006490000000000001,,-6.490000000000001e-07,-0.649
616.615,0.554095,-0.000625,,-6.25e-07,-0.625
616.673,0.5568489999999999,-0.000625,,-6.25e-07,-0.625
616.73,0.559604,-0.000656,,-6.559999999999999e-07,-0.6559999999999999
616.789,0.562703,-0.000656,,-6.559999999999999e-07,-0.6559999999999999
616.8480000000001,0.56563,-0.000653,,-6.529999999999999e-07,-0.653
616.911,0.568729,-0.000584,,-5.839999999999999e-07,-0.584
616.97,0.571828,-0.0005740000000000001,,-5.74e-07,-0.5740000000000001
617.038,0.575271,-0.000491,,-4.91e-07,-0.491
617.096,0.578026,-0.0004570000000000001,,-4.57e-07,-0.4570000000000001
617.153,0.5809529999999999,-0.000446,,-4.46e-07,-0.446
617.212,0.583535,-0.000443,,-4.43e-07,-0.44299999999999995
617.271,0.586462,-0.000429,,-4.29e-07,-0.429
617.33,0.589561,-0.0004150000000000001,,-4.150000000000001e-07,-0.415
617.389,0.592316,-0.000395,,-3.95e-07,-0.395
617.447,0.595242,-0.000384,,-3.84e-07,-0.384
617.506,0.598514,-0.00034,,-3.4e-07,-0.34
617.564,0.601268,-0.000291,,-2.9100000000000005e-07,-0.29100000000000004
617.626,0.6041949999999999,-0.000267,,-2.67e-07,-0.267
617.686,0.607122,-0.00024700000000000004,,-2.4700000000000003e-07,-0.24700000000000005
617.745,0.610221,-0.000229,,-2.2899999999999997e-07,-0.22899999999999998
617.811,0.61332,-0.000154,,-1.54e-07,-0.154
617.869,0.616074,-0.000174,,-1.74e-07,-0.174
617.927,0.619173,-0.000192,,-1.92e-07,-0.192
617.986,0.6221,-0.000185,,-1.85e-07,-0.185
618.044,0.625027,-0.000171,,-1.71e-07,-0.171
618.105,0.627954,-0.000164,,-1.6399999999999999e-07,-0.16399999999999998
618.165,0.630881,-0.00015,,-1.5e-07,-0.15
618.2230000000001,0.633808,-0.000116,,-1.16e-07,-0.116
618.28,0.636734,-6.8e-05,,-6.8e-08,-0.068
618.341,0.639833,-6.1e-05,,-6.099999999999999e-08,-0.061
618.4,0.642588,-2.6e-05,,-2.6e-08,-0.026
618.4590000000001,0.645687,1.2e-05,,1.2e-08,0.012
618.523,0.648786,-3.3e-05,,-3.3000000000000004e-08,-0.033
618.581,0.651713,1.5e-05,,1.5e-08,0.015
618.641,0.65464,3.6e-05,,3.6e-08,0.036000000000000004
618.6990000000001,0.657566,0.000101,,1.0099999999999999e-07,0.10099999999999999
618.756,0.660321,0.000156,,1.56e-07,0.156
618.817,0.663248,0.00018,,1.8000000000000005e-07,0.18000000000000002
618.876,0.666175,0.000225,,2.25e-07,0.225
618.936,0.6692739999999999,0.000284,,2.8399999999999995e-07,0.284
618.997,0.672201,0.000384,,3.84e-07,0.384
619.056,0.674955,0.0006,,6e-07,0.6
619.115,0.677538,0.000934,,9.340000000000001e-07,0.934
619.174,0.68012,0.00131,,1.31e-06,1.31
619.231,0.682703,0.001644,,1.644e-06,1.644
619.289,0.6856300000000001,0.001957,,1.957e-06,1.9569999999999999
619.3480000000001,0.6882119999999999,0.002202,,2.202e-06,2.202
619.408,0.691311,0.002295,,2.295e-06,2.295
619.469,0.694066,0.002215,,2.215e-06,2.215
619.528,0.6971649999999999,0.001995,,1.995e-06,1.995
619.587,0.700091,0.001747,,1.747e-06,1.747
619.645,0.70319,0.001516,,1.516e-06,1.516
619.702,0.706117,0.001365,,1.365e-06,1.3650000000000002
619.76,0.709044,0.001227,,1.227e-06,1.227
619.82,0.7123149999999999,0.001086,,1.086e-06,1.086
619.879,0.71507,0.000986,,9.86e-07,0.986
619.938,0.717997,0.000921,,9.21e-07,0.9209999999999999
619.996,0.720924,0.000866,,8.659999999999999e-07,0.866
620.055,0.724023,0.0008210000000000001,,8.210000000000002e-07,0.8210000000000001
620.115,0.726949,0.000797,,7.970000000000001e-07,0.7969999999999999
620.172,0.729704,0.000745,,7.45e-07,0.745
620.23,0.732631,0.000714,,7.140000000000001e-07,0.7140000000000001
620.293,0.7359020000000001,0.000793,,7.93e-07,0.7929999999999999
620.3530000000001,0.738829,0.00081,,8.1e-07,0.8099999999999999
620.411,0.7419279999999999,0.000807,,8.070000000000001e-07,0.8069999999999999
620.471,0.744682,0.000852,,8.520000000000001e-07,0.852
620.53,0.747781,0.000883,,8.83e-07,0.883
620.589,0.750536,0.000921,,9.21e-07,0.9209999999999999
620.6469999999999,0.7532909999999999,0.000952,,9.520000000000001e-07,0.9520000000000001
620.7040000000001,0.7562180000000001,0.001017,,1.017e-06,1.0170000000000001
620.763,0.759317,0.0011,,1.1e-06,1.1
620.823,0.762243,0.001179,,1.179e-06,1.1789999999999998
620.882,0.764998,0.001272,,1.272e-06,1.272
620.942,0.768097,0.001351,,1.3509999999999999e-06,1.351
621.001,0.7708520000000001,0.0014470000000000002,,1.4469999999999999e-06,1.4469999999999998
621.062,0.7739510000000001,0.001513,,1.5130000000000002e-06,1.513
621.12,0.776877,0.001637,,1.637e-06,1.6369999999999998
621.179,0.779632,0.0017329999999999995,,1.7329999999999995e-06,1.7329999999999997
621.239,0.7823869999999999,0.001823,,1.8230000000000002e-06,1.8230000000000002
621.297,0.7853140000000001,0.001923,,1.923e-06,1.923
621.354,0.788068,0.001998,,1.998e-06,1.998
621.413,0.7908229999999999,0.0020670000000000003,,2.0670000000000003e-06,2.0669999999999997
621.472,0.79375,0.002122,,2.122e-06,2.122
621.53,0.7966770000000001,0.00216,,2.16e-06,2.16
621.589,0.799431,0.002212,,2.2119999999999997e-06,2.2119999999999997
621.6469999999999,0.802186,0.00225,,2.25e-06,2.25
621.706,0.805285,0.002308,,2.308e-06,2.3080000000000003
621.766,0.80804,0.00237,,2.37e-06,2.37
621.8240000000001,0.811139,0.002436,,2.436e-06,2.436
621.884,0.813893,0.002494,,2.494e-06,2.494
621.943,0.81682,0.00256,,2.56e-06,2.56
622.008,0.8197469999999999,0.002615,,2.6149999999999995e-06,2.615
622.067,0.822846,0.002649,,2.649e-06,2.6489999999999996
622.126,0.825773,0.002687,,2.6870000000000003e-06,2.6870000000000003
622.185,0.828699,0.002732,,2.732e-06,2.7319999999999998
622.242,0.8314540000000001,0.002804,,2.8039999999999998e-06,2.8040000000000003
622.3,0.834209,0.002883,,2.883e-06,2.883
622.36,0.8371360000000001,0.002866,,2.866e-06,2.866
622.419,0.8402350000000001,0.0028940000000000003,,2.8939999999999997e-06,2.8939999999999997
622.4780000000001,0.843334,0.002925,,2.925e-06,2.9250000000000003
622.54,0.84626,0.002907,,2.907e-06,2.907
622.5980000000001,0.849015,0.002966,,2.966e-06,2.966
622.658,0.85177,0.003,,3e-06,3.0
622.715,0.8548690000000001,0.003038,,3.038e-06,3.0380000000000003
622.776,0.8577950000000001,0.003062,,3.062e-06,3.062
622.835,0.860722,0.0031,,3.1e-06,3.1
622.894,0.863649,0.003121,,3.1210000000000007e-06,3.1210000000000004
622.956,0.866576,0.0031620000000000003,,3.162000000000001e-06,3.1620000000000004
623.014,0.869503,0.00319,,3.189999999999999e-06,3.1899999999999995
623.0740000000001,0.872602,0.003221,,3.221e-06,3.221
623.136,0.8753559999999999,0.003235,,3.235e-06,3.235
623.2,0.8788,0.0032380000000000004,,3.2380000000000006e-06,3.2380000000000004
623.259,0.881727,0.003293,,3.293e-06,3.293
623.318,0.884481,0.003341,,3.3410000000000003e-06,3.341
623.376,0.887408,0.003396,,3.396e-06,3.3960000000000004
623.433,0.8901629999999999,0.003403,,3.4030000000000007e-06,3.403
623.491,0.8906790000000001,0.002284,,2.284e-06,2.2840000000000003
623.5509999999999,0.888785,0.0011619999999999998,,1.1619999999999998e-06,1.162
