time,potential,current1_mA,coll_current,current1,current1_muA
1965.885,0.834725,-0.0010279999999999998,,-1.0279999999999995e-06,-1.0279999999999998
1965.9489999999998,0.831626,-0.001073,,-1.073e-06,-1.073
1966.014,0.828355,-0.001194,,-1.1940000000000001e-06,-1.194
1966.078,0.825256,-0.001235,,-1.235e-06,-1.235
1966.141,0.8221569999999999,-0.001214,,-1.2140000000000002e-06,-1.214
1966.221,0.8181970000000001,-0.001256,,-1.256e-06,-1.256
1966.295,0.814754,-0.0013310000000000002,,-1.331e-06,-1.3310000000000002
1966.374,0.810794,-0.001366,,-1.366e-06,-1.3659999999999999
1966.444,0.807523,-0.001324,,-1.3240000000000002e-06,-1.324
1966.519,0.803908,-0.001483,,-1.483e-06,-1.483
1966.594,0.800292,-0.0015140000000000002,,-1.5140000000000005e-06,-1.5140000000000002
1966.6689999999999,0.7966770000000001,-0.00149,,-1.49e-06,-1.49
1966.7379999999998,0.793233,-0.001669,,-1.669e-06,-1.669
1966.805,0.78979,-0.00161,,-1.61e-06,-1.61
1966.875,0.786519,-0.001803,,-1.803e-06,-1.803
1966.942,0.7832479999999999,-0.0018,,-1.8000000000000001e-06,-1.8
1967.006,0.780149,-0.0018170000000000005,,-1.8170000000000003e-06,-1.817
1967.07,0.7773939999999999,-0.001927,,-1.927e-06,-1.927
1967.134,0.774123,-0.002072,,-2.072e-06,-2.072
1967.1979999999999,0.7710239999999999,-0.002168,,-2.1680000000000002e-06,-2.168
1967.27,0.7675810000000001,-0.00214,,-2.14e-06,-2.14
1967.3429999999998,0.763793,-0.002254,,-2.254e-06,-2.254
1967.425,0.760005,-0.002295,,-2.295e-06,-2.295
1967.496,0.756734,-0.002495,,-2.495e-06,-2.495
1967.5620000000001,0.7532909999999999,-0.002499,,-2.499e-06,-2.499
1967.626,0.750192,-0.002499,,-2.499e-06,-2.499
1967.692,0.747093,-0.002616,,-2.616e-06,-2.616
1967.769,0.743477,-0.00264,,-2.64e-06,-2.64
1967.852,0.739517,-0.002771,,-2.771e-06,-2.7710000000000004
1967.925,0.73573,-0.002815,,-2.815e-06,-2.815
1968.0,0.732114,-0.002984,,-2.9839999999999997e-06,-2.984
1968.0720000000001,0.728671,-0.003036,,-3.036e-06,-3.036
1968.136,0.725916,-0.00317,,-3.17e-06,-3.17
1968.1979999999999,0.722645,-0.0032600000000000003,,-3.26e-06,-3.26
1968.263,0.719202,-0.003294,,-3.294e-06,-3.294
1968.328,0.7164470000000001,-0.0033520000000000004,,-3.3520000000000007e-06,-3.3520000000000003
1968.392,0.7135199999999999,-0.003518,,-3.518e-06,-3.5180000000000002
1968.455,0.710594,-0.003717,,-3.7169999999999997e-06,-3.717
1968.5220000000002,0.70715,-0.003848,,-3.848e-06,-3.8480000000000003
1968.619,0.703018,-0.004031,,-4.031e-06,-4.031000000000001
1968.6889999999999,0.699231,-0.004286,,-4.286e-06,-4.2860000000000005
1968.767,0.695615,-0.004554,,-4.554e-06,-4.553999999999999
1968.8329999999999,0.692688,-0.004843,,-4.843e-06,-4.843
1968.895,0.689934,-0.00504,,-5.04e-06,-5.04
1968.957,0.686662,-0.005104999999999999,,-5.1049999999999986e-06,-5.105
1969.02,0.6835640000000001,-0.005009,,-5.0090000000000015e-06,-5.0089999999999995
1969.085,0.680292,-0.0047020000000000005,,-4.702e-06,-4.702000000000001
1969.15,0.677193,-0.00442,,-4.42e-06,-4.42
1969.215,0.673922,-0.004237,,-4.2369999999999986e-06,-4.236999999999999
1969.279,0.670651,-0.004086,,-4.086e-06,-4.086
1969.3429999999998,0.66738,-0.003965,,-3.965e-06,-3.965
1969.4070000000002,0.664281,-0.003907,,-3.907e-06,-3.907
1969.47,0.6611819999999999,-0.003934,,-3.934e-06,-3.9339999999999997
1969.533,0.658255,-0.0040030000000000005,,-4.0030000000000005e-06,-4.003
1969.6,0.654467,-0.004048,,-4.047999999999998e-06,-4.047999999999999
1969.668,0.6513680000000001,-0.003976,,-3.9760000000000006e-06,-3.976
1969.731,0.648269,-0.004031,,-4.031e-06,-4.031000000000001
1969.796,0.644998,-0.004144,,-4.1440000000000005e-06,-4.144
1969.864,0.641555,-0.0041,,-4.1000000000000006e-06,-4.1000000000000005
1969.9289999999999,0.638456,-0.0041,,-4.1000000000000006e-06,-4.1000000000000005
1969.99,0.6357010000000001,-0.004141,,-4.141e-06,-4.141
1970.055,0.63243,-0.004262,,-4.262e-06,-4.2620000000000005
1970.121,0.628987,-0.004279,,-4.279e-06,-4.279
1970.1870000000001,0.6257159999999999,-0.004231,,-4.2310000000000015e-06,-4.231000000000001
1970.2579999999998,0.622445,-0.004379,,-4.379e-06,-4.379
1970.32,0.619173,-0.004392,,-4.3920000000000005e-06,-4.3919999999999995
1970.386,0.616074,-0.004337,,-4.3369999999999985e-06,-4.337
1970.4520000000002,0.6131479999999999,-0.004406,,-4.406e-06,-4.4060000000000015
1970.517,0.609876,-0.0045060000000000005,,-4.5060000000000006e-06,-4.506
1970.5829999999999,0.606089,-0.004465,,-4.465e-06,-4.465
1970.648,0.603334,-0.004441,,-4.441e-06,-4.441
1970.713,0.6002350000000001,-0.004523,,-4.523e-06,-4.523
1970.7779999999998,0.596964,-0.004592000000000001,,-4.592e-06,-4.5920000000000005
1970.8429999999998,0.593521,-0.004527000000000001,,-4.527000000000002e-06,-4.527000000000001
1970.905,0.590422,-0.004509,,-4.5089999999999995e-06,-4.5089999999999995
1970.969,0.587667,-0.004503,,-4.503e-06,-4.503
1971.036,0.584224,-0.00462,,-4.62e-06,-4.62
1971.102,0.5809529999999999,-0.004582,,-4.5819999999999995e-06,-4.582
1971.17,0.577681,-0.004523,,-4.523e-06,-4.523
1971.249,0.573549,-0.004527000000000001,,-4.527000000000002e-06,-4.527000000000001
1971.3329999999999,0.5695899999999999,-0.0045850000000000005,,-4.585e-06,-4.585000000000001
1971.402,0.565802,-0.004602,,-4.602e-06,-4.602
1971.469,0.562703,-0.00454,,-4.54e-06,-4.54
1971.536,0.5594319999999999,-0.004644,,-4.644e-06,-4.644
1971.601,0.5559890000000001,-0.004633,,-4.633e-06,-4.633
1971.6629999999998,0.55289,-0.004589,,-4.589e-06,-4.5889999999999995
1971.7320000000002,0.549791,-0.004609,,-4.608999999999999e-06,-4.609
1971.7979999999998,0.546175,-0.004692,,-4.692e-06,-4.692
1971.8629999999998,0.5429039999999999,-0.00463,,-4.63e-06,-4.63
1971.9279999999999,0.539805,-0.004599,,-4.599e-06,-4.599
1971.994,0.536878,-0.004692,,-4.692e-06,-4.692
1972.059,0.53309,-0.004747,,-4.747e-06,-4.747
1972.121,0.5301640000000001,-0.00474,,-4.74e-06,-4.74
1972.184,0.526892,-0.004716,,-4.7159999999999986e-06,-4.715999999999998
1972.249,0.5237930000000001,-0.004713,,-4.713e-06,-4.713
1972.3139999999999,0.520867,-0.00483,,-4.83e-06,-4.83
1972.381,0.517079,-0.004864,,-4.8639999999999995e-06,-4.864
1972.443,0.51398,-0.004878,,-4.8780000000000006e-06,-4.878
1972.507,0.510881,-0.004868,,-4.868e-06,-4.868
1972.5720000000001,0.508126,-0.004957,,-4.9569999999999984e-06,-4.957
1972.6370000000002,0.5045109999999999,-0.005084,,-5.084e-06,-5.084
1972.7020000000002,0.50124,-0.005102000000000001,,-5.102e-06,-5.102
1972.766,0.498141,-0.0050880000000000005,,-5.088e-06,-5.088
1972.8310000000001,0.495042,-0.005164,,-5.164e-06,-5.1640000000000015
1972.894,0.491771,-0.005274,,-5.274e-06,-5.274
1972.9560000000001,0.488499,-0.0053560000000000005,,-5.356000000000002e-06,-5.356000000000001
1973.019,0.4854,-0.005408,,-5.408e-06,-5.408
1973.0829999999999,0.482129,-0.005398,,-5.398e-06,-5.398
1973.15,0.479203,-0.005381,,-5.3810000000000015e-06,-5.381
1973.215,0.4759310000000001,-0.005484,,-5.4839999999999995e-06,-5.484
1973.279,0.472316,-0.005501,,-5.501e-06,-5.501
1973.3429999999998,0.469217,-0.005429,,-5.429e-06,-5.4289999999999985
1973.4089999999999,0.465774,-0.005332,,-5.332000000000001e-06,-5.332000000000001
1973.473,0.462675,-0.005315,,-5.315e-06,-5.315
1973.537,0.459403,-0.005274,,-5.274e-06,-5.274
1973.6029999999998,0.455616,-0.005098,,-5.098e-06,-5.098
1973.668,0.452689,-0.004905,,-4.905e-06,-4.9049999999999985
1973.731,0.449418,-0.004785,,-4.785e-06,-4.785
1973.796,0.446147,-0.004695,,-4.695000000000002e-06,-4.695
1973.861,0.442703,-0.004520000000000001,,-4.520000000000002e-06,-4.5200000000000005
1973.9229999999998,0.43926,-0.004303,,-4.303e-06,-4.303000000000001
1973.985,0.436333,-0.0041,,-4.1000000000000006e-06,-4.1000000000000005
1974.0479999999998,0.433062,-0.0039310000000000005,,-3.931e-06,-3.931000000000001
1974.115,0.429791,-0.003886,,-3.8860000000000006e-06,-3.886
1974.18,0.426348,-0.003745000000000001,,-3.7450000000000006e-06,-3.745000000000001
1974.245,0.423076,-0.003525,,-3.525e-06,-3.525
1974.31,0.419977,-0.003421,,-3.4210000000000004e-06,-3.4210000000000003
1974.3729999999998,0.416878,-0.003383,,-3.383e-06,-3.383
1974.4360000000001,0.413607,-0.003346,,-3.3460000000000002e-06,-3.346
1974.503,0.410164,-0.003184,,-3.1840000000000008e-06,-3.1839999999999997
1974.568,0.407065,-0.0030670000000000003,,-3.067000000000001e-06,-3.0669999999999997
1974.634,0.403794,-0.003111,,-3.1110000000000004e-06,-3.111
1974.6979999999999,0.400523,-0.003077,,-3.077e-06,-3.077
1974.766,0.397079,-0.0029010000000000004,,-2.9010000000000007e-06,-2.901
1974.83,0.394153,-0.002895,,-2.895e-06,-2.895
1974.892,0.391054,-0.002912,,-2.912e-06,-2.912
1974.9560000000001,0.387782,-0.002932,,-2.932e-06,-2.932
1975.02,0.384511,-0.002867,,-2.867e-06,-2.867
1975.085,0.381584,-0.002753,,-2.753e-06,-2.753
1975.1529999999998,0.378313,-0.0028190000000000003,,-2.819000000000001e-06,-2.8190000000000004
1975.226,0.374698,-0.002712,,-2.712e-06,-2.7119999999999997
1975.2939999999999,0.371427,-0.002815,,-2.815e-06,-2.815
1975.358,0.368156,-0.0028120000000000003,,-2.8120000000000004e-06,-2.8120000000000003
1975.422,0.365057,-0.002733,,-2.733e-06,-2.733
1975.487,0.361785,-0.002684,,-2.6839999999999996e-06,-2.6839999999999997
1975.5539999999999,0.358514,-0.002805,,-2.805e-06,-2.805
1975.616,0.35541500000000004,-0.002826,,-2.826e-06,-2.826
1975.68,0.352488,-0.002784,,-2.784e-06,-2.784
1975.746,0.349389,-0.002698,,-2.6980000000000003e-06,-2.698
1975.8120000000001,0.346118,-0.002784,,-2.784e-06,-2.784
1975.876,0.343019,-0.002826,,-2.826e-06,-2.826
1975.9379999999999,0.340092,-0.002798,,-2.798e-06,-2.798
1976.004,0.336993,-0.002681,,-2.6810000000000003e-06,-2.681
1976.07,0.33355,-0.002709,,-2.709e-06,-2.7089999999999996
1976.138,0.330279,-0.002781,,-2.781e-06,-2.781
1976.2079999999999,0.326664,-0.002657,,-2.6569999999999997e-06,-2.657
1976.2720000000002,0.323737,-0.002726,,-2.726e-06,-2.7260000000000004
1976.338,0.320466,-0.002746,,-2.746e-06,-2.7460000000000004
1976.399,0.317539,-0.002722,,-2.722e-06,-2.722
1976.461,0.31444,-0.0026780000000000003,,-2.6780000000000004e-06,-2.6780000000000004
1976.526,0.31116900000000003,-0.0026260000000000003,,-2.6260000000000004e-06,-2.6260000000000003
1976.5910000000001,0.30806999999999995,-0.002712,,-2.712e-06,-2.7119999999999997
1976.655,0.304798,-0.002757,,-2.757e-06,-2.7569999999999997
1976.729,0.301183,-0.00266,,-2.66e-06,-2.66
1976.7920000000001,0.297912,-0.002722,,-2.722e-06,-2.722
1976.856,0.294985,-0.002746,,-2.746e-06,-2.7460000000000004
1976.921,0.29188600000000003,-0.002667,,-2.667e-06,-2.6670000000000003
1976.984,0.289131,-0.002616,,-2.616e-06,-2.616
1977.0539999999999,0.285172,-0.002733,,-2.733e-06,-2.733
1977.12,0.282073,-0.00266,,-2.66e-06,-2.66
1977.184,0.279146,-0.002581,,-2.5810000000000004e-06,-2.5810000000000004
1977.249,0.27553,-0.002612,,-2.6119999999999997e-06,-2.612
1977.3139999999999,0.272431,-0.002684,,-2.6839999999999996e-06,-2.6839999999999997
1977.382,0.269332,-0.0025670000000000003,,-2.5669999999999997e-06,-2.5669999999999997
1977.444,0.266061,-0.002533,,-2.533e-06,-2.5329999999999995
1977.51,0.26279,-0.002585,,-2.585e-06,-2.585
1977.5739999999998,0.259691,-0.00264,,-2.64e-06,-2.64
1977.639,0.256592,-0.002595,,-2.595e-06,-2.595
1977.703,0.253493,-0.002512,,-2.512e-06,-2.512
1977.767,0.250394,-0.002499,,-2.499e-06,-2.499
1977.829,0.247295,-0.00253,,-2.5300000000000003e-06,-2.53
1977.892,0.244024,-0.002592,,-2.592e-06,-2.592
1977.953,0.241097,-0.002619,,-2.6190000000000003e-06,-2.6189999999999998
1978.016,0.23817,-0.002633,,-2.633e-06,-2.633
1978.0810000000001,0.235243,-0.002547,,-2.547e-06,-2.547
1978.146,0.23162800000000006,-0.0024920000000000003,,-2.4920000000000005e-06,-2.4920000000000004
1978.21,0.228701,-0.00255,,-2.55e-06,-2.5500000000000003
1978.274,0.225602,-0.002623,,-2.623e-06,-2.623
1978.342,0.222331,-0.00253,,-2.5300000000000003e-06,-2.53
1978.406,0.218888,-0.002495,,-2.495e-06,-2.495
1978.481,0.215444,-0.002564,,-2.564e-06,-2.5639999999999996
1978.5610000000001,0.211485,-0.0025670000000000003,,-2.5669999999999997e-06,-2.5669999999999997
1978.64,0.207525,-0.002609,,-2.609e-06,-2.609
1978.72,0.203565,-0.002633,,-2.633e-06,-2.633
1978.7910000000002,0.200122,-0.002609,,-2.609e-06,-2.609
1978.8629999999998,0.19685,-0.002581,,-2.5810000000000004e-06,-2.5810000000000004
1978.9270000000001,0.193407,-0.002588,,-2.588e-06,-2.588
1978.9979999999998,0.190136,-0.002726,,-2.726e-06,-2.7260000000000004
1979.0629999999999,0.186865,-0.002653,,-2.6530000000000003e-06,-2.653
1979.1270000000002,0.183766,-0.002653,,-2.6530000000000003e-06,-2.653
1979.1989999999998,0.18015,-0.002815,,-2.815e-06,-2.815
1979.281,0.176018,-0.002802,,-2.802e-06,-2.802
1979.355,0.172575,-0.002877,,-2.877e-06,-2.877
1979.4279999999999,0.169132,-0.002798,,-2.798e-06,-2.798
1979.501,0.16534400000000002,-0.002915,,-2.915e-06,-2.915
1979.567,0.162073,-0.00287,,-2.87e-06,-2.87
1979.6329999999998,0.158974,-0.003005,,-3.005e-06,-3.005
1979.6979999999999,0.155703,-0.003077,,-3.077e-06,-3.077
1979.766,0.15243199999999998,-0.002987,,-2.987e-06,-2.987
1979.83,0.149505,-0.00306,,-3.0600000000000008e-06,-3.06
1979.9,0.14588900000000002,-0.003173,,-3.173e-06,-3.173
1979.964,0.14279,-0.003149,,-3.149e-06,-3.1489999999999996
1980.0279999999998,0.13986400000000002,-0.003177,,-3.177e-06,-3.177
1980.092,0.136765,-0.003297,,-3.297e-06,-3.2969999999999997
1980.1589999999999,0.133321,-0.003414,,-3.414e-06,-3.4139999999999997
1980.221,0.130222,-0.003435,,-3.435e-06,-3.435
1980.286,0.126951,-0.003411,,-3.411e-06,-3.411
1980.3529999999998,0.12368,-0.003559000000000001,,-3.5590000000000006e-06,-3.5590000000000006
1980.4170000000001,0.120753,-0.00368,,-3.68e-06,-3.68
1980.483,0.11731,-0.003673,,-3.6730000000000002e-06,-3.673
1980.5479999999998,0.114383,-0.0037,,-3.7000000000000006e-06,-3.7
1980.6129999999998,0.111284,-0.003872,,-3.8719999999999995e-06,-3.872
1980.675,0.108185,-0.003996,,-3.996e-06,-3.996
1980.7420000000002,0.10508599999999997,-0.004069,,-4.069e-06,-4.069
1980.808,0.101815,-0.004124,,-4.124e-06,-4.124
1980.894,0.097855,-0.004286,,-4.286e-06,-4.2860000000000005
1980.9720000000002,0.094068,-0.004520000000000001,,-4.520000000000002e-06,-4.5200000000000005
1981.06,0.08959099999999999,-0.00483,,-4.83e-06,-4.83
1981.1429999999998,0.08545900000000001,-0.005036,,-5.0360000000000006e-06,-5.0360000000000005
1981.2160000000001,0.082188,-0.005363000000000001,,-5.363000000000002e-06,-5.3629999999999995
1981.2839999999999,0.07874500000000001,-0.005584,,-5.583999999999999e-06,-5.5840000000000005
1981.35,0.07599,-0.00588,,-5.88e-06,-5.88
1981.4129999999998,0.072891,-0.006293,,-6.293e-06,-6.292999999999999
1981.475,0.070136,-0.006741,,-6.741e-06,-6.7410000000000005
1981.537,0.067038,-0.007223,,-7.222999999999999e-06,-7.223
1981.601,0.064111,-0.007774,,-7.774e-06,-7.774
1981.668,0.061012,-0.008393000000000001,,-8.392999999999999e-06,-8.392999999999999
1981.734,0.058257,-0.009309,,-9.309e-06,-9.309
1981.799,0.05533,-0.010291,,-1.0290999999999999e-05,-10.290999999999999
1981.862,0.054642,-0.006586,,-6.586e-06,-6.5859999999999985
1981.925,0.056019000000000006,-0.00349,,-3.49e-06,-3.49
1981.989,0.057913,-0.002127,,-2.1269999999999997e-06,-2.127
1982.0539999999999,0.059979,-0.001228,,-1.228e-06,-1.228
1982.118,0.062217,-0.000536,,-5.36e-07,-0.536
1982.181,0.063939,5.600000000000001e-05,,5.600000000000001e-08,0.056000000000000015
1982.2479999999998,0.066865,0.000587,,5.870000000000001e-07,0.5870000000000001
1982.3129999999999,0.06979199999999999,0.0008349999999999999,,8.349999999999998e-07,0.835
1982.382,0.072202,0.001048,,1.0480000000000002e-06,1.048
1982.4460000000001,0.075129,0.001248,,1.248e-06,1.248
1982.511,0.0784,0.001306,,1.3059999999999999e-06,1.306
1982.5770000000002,0.081327,0.001241,,1.2409999999999998e-06,1.241
1982.639,0.084426,0.001244,,1.244e-06,1.2439999999999998
1982.704,0.087697,0.001289,,1.289e-06,1.2890000000000001
1982.769,0.090969,0.001268,,1.268e-06,1.268
1982.8329999999999,0.09424,0.001144,,1.144e-06,1.144
1982.898,0.097339,0.001027,,1.027e-06,1.0270000000000001
1982.967,0.10061,0.001062,,1.062e-06,1.062
1983.03,0.104053,0.000986,,9.86e-07,0.986
1983.095,0.107324,0.0008210000000000001,,8.210000000000002e-07,0.8210000000000001
1983.16,0.110251,0.000721,,7.21e-07,0.721
1983.226,0.113867,0.000759,,7.590000000000002e-07,0.759
1983.2879999999998,0.116966,0.0006929999999999999,,6.93e-07,0.693
1983.35,0.12023699999999997,0.000618,,6.18e-07,0.618
1983.4129999999998,0.123508,0.0005009999999999999,,5.009999999999999e-07,0.5009999999999999
1983.479,0.126951,0.000373,,3.7299999999999997e-07,0.373
1983.5439999999999,0.130222,0.000397,,3.97e-07,0.397
1983.609,0.133666,0.00038,,3.8e-07,0.38
1983.672,0.13693699999999998,0.00028,,2.8e-07,0.28
1983.736,0.140036,0.000156,,1.56e-07,0.156
1983.8,0.143307,0.000115,,1.1499999999999997e-07,0.115
1983.864,0.146406,0.000149,,1.49e-07,0.149
1983.9289999999999,0.15002100000000002,0.000132,,1.3200000000000002e-07,0.132
1983.994,0.15312,-6e-06,,-6e-09,-0.006
1984.058,0.156219,-8.1e-05,,-8.1e-08,-0.081
1984.1229999999998,0.159663,-4e-05,,-4e-08,-0.04
1984.1860000000001,0.162934,-1.6e-05,,-1.5999999999999998e-08,-0.016
1984.249,0.166033,-6.1e-05,,-6.099999999999999e-08,-0.061
1984.3139999999999,0.169304,-0.000178,,-1.7799999999999995e-07,-0.17800000000000002
1984.38,0.172747,-0.000216,,-2.1600000000000005e-07,-0.21600000000000005
1984.445,0.176018,-0.00014,,-1.3999999999999998e-07,-0.14
1984.51,0.17929,-0.000185,,-1.85e-07,-0.185
1984.575,0.182216,-0.000309,,-3.09e-07,-0.309
1984.638,0.185488,-0.000346,,-3.46e-07,-0.34600000000000003
1984.7,0.188587,-0.000326,,-3.2600000000000003e-07,-0.326
1984.764,0.19203,-0.00027400000000000005,,-2.7400000000000004e-07,-0.27399999999999997
1984.828,0.195301,-0.000284,,-2.8399999999999995e-07,-0.284
1984.8929999999998,0.198228,-0.000402,,-4.02e-07,-0.402
1984.955,0.201499,-0.000453,,-4.53e-07,-0.45299999999999996
1985.0220000000002,0.204942,-0.000377,,-3.7700000000000005e-07,-0.377
1985.0870000000002,0.208041,-0.00035,,-3.5e-07,-0.35
1985.151,0.211312,-0.000426,,-4.2600000000000003e-07,-0.426
1985.215,0.214411,-0.0005009999999999999,,-5.009999999999999e-07,-0.5009999999999999
1985.2779999999998,0.217683,-0.0005009999999999999,,-5.009999999999999e-07,-0.5009999999999999
1985.342,0.221126,-0.000433,,-4.3299999999999997e-07,-0.433
1985.404,0.22405300000000006,-0.000398,,-3.98e-07,-0.39799999999999996
1985.4679999999998,0.227152,-0.000405,,-4.05e-07,-0.405
1985.533,0.230251,-0.0005009999999999999,,-5.009999999999999e-07,-0.5009999999999999
1985.5970000000002,0.233522,-0.000526,,-5.26e-07,-0.526
1985.662,0.236793,-0.000443,,-4.43e-07,-0.44299999999999995
1985.73,0.240064,-0.0004570000000000001,,-4.57e-07,-0.4570000000000001
1985.8110000000001,0.244196,-0.000495,,-4.95e-07,-0.495
1985.8770000000002,0.247467,-0.000546,,-5.46e-07,-0.546
1985.9389999999999,0.250566,-0.000532,,-5.32e-07,-0.532
1986.004,0.25401,-0.00045,,-4.5e-07,-0.45
1986.07,0.256936,-0.000505,,-5.05e-07,-0.505
1986.1370000000002,0.260552,-0.000598,,-5.979999999999999e-07,-0.598
1986.207,0.263995,-0.000481,,-4.81e-07,-0.48100000000000004
1986.2720000000002,0.267094,-0.000605,,-6.049999999999999e-07,-0.605
1986.338,0.270537,-0.000615,,-6.149999999999999e-07,-0.615
1986.4070000000002,0.273636,-0.000522,,-5.22e-07,-0.522
1986.4720000000002,0.27708,-0.000612,,-6.12e-07,-0.612
1986.5379999999998,0.280523,-0.000625,,-6.25e-07,-0.625
1986.6029999999998,0.283622,-0.000522,,-5.22e-07,-0.522
1986.668,0.286721,-0.000536,,-5.36e-07,-0.536
1986.731,0.289648,-0.000598,,-5.979999999999999e-07,-0.598
1986.796,0.293091,-0.0006320000000000001,,-6.32e-07,-0.6320000000000001
1986.86,0.296534,-0.000567,,-5.67e-07,-0.5670000000000001
1986.9229999999998,0.299633,-0.0005009999999999999,,-5.009999999999999e-07,-0.5009999999999999
1986.993,0.30290500000000004,-0.000601,,-6.009999999999999e-07,-0.601
1987.058,0.306176,-0.000588,,-5.88e-07,-0.588
1987.124,0.309447,-0.000467,,-4.6700000000000004e-07,-0.467
1987.1889999999999,0.312546,-0.000495,,-4.95e-07,-0.495
1987.251,0.315817,-0.000532,,-5.32e-07,-0.532
1987.316,0.31908800000000004,-0.000567,,-5.67e-07,-0.5670000000000001
1987.382,0.322359,-0.0004570000000000001,,-4.57e-07,-0.4570000000000001
