time,potential,current1_mA,coll_current,current1,current1_muA
1465.7520000000002,0.065316,-0.011792,,-1.1792e-05,-11.792
1465.8129999999999,0.06273300000000001,-0.012395,,-1.2395e-05,-12.395
1465.874,0.05980700000000001,-0.013107,,-1.3106999999999997e-05,-13.107000000000001
1465.935,0.057224,-0.013968,,-1.3967999999999999e-05,-13.968000000000002
1465.9979999999998,0.054297000000000005,-0.015029,,-1.5029000000000001e-05,-15.028999999999998
1466.058,0.054297000000000005,-0.011279,,-1.1279000000000003e-05,-11.279000000000002
1466.122,0.055502,-0.007915,,-7.915e-06,-7.915
1466.185,0.056879999999999986,-0.006358,,-6.358e-06,-6.358
1466.246,0.058774,-0.005253,,-5.253e-06,-5.252999999999999
1466.308,0.06084,-0.004382,,-4.382e-06,-4.382
1466.372,0.06325,-0.00368,,-3.68e-06,-3.68
1466.435,0.066005,-0.003187,,-3.1869999999999997e-06,-3.1870000000000003
1466.497,0.068759,-0.00287,,-2.87e-06,-2.87
1466.557,0.071514,-0.002653,,-2.6530000000000003e-06,-2.653
1466.62,0.074441,-0.002557,,-2.5570000000000003e-06,-2.5570000000000004
1466.684,0.07754,-0.002526,,-2.526e-06,-2.526
1466.747,0.080294,-0.002474,,-2.4739999999999995e-06,-2.474
1466.8110000000001,0.083565,-0.002437,,-2.4369999999999997e-06,-2.437
1466.8729999999998,0.086837,-0.002437,,-2.4369999999999997e-06,-2.437
1466.935,0.090108,-0.002495,,-2.495e-06,-2.495
1466.996,0.093035,-0.002554,,-2.554e-06,-2.5540000000000003
1467.057,0.096306,-0.00264,,-2.64e-06,-2.64
1467.121,0.099577,-0.002788,,-2.788e-06,-2.7880000000000003
1467.182,0.102676,-0.002891,,-2.8910000000000004e-06,-2.891
1467.253,0.106291,-0.002867,,-2.867e-06,-2.867
1467.317,0.109735,-0.0029530000000000003,,-2.9530000000000008e-06,-2.9530000000000003
1467.38,0.113006,-0.003077,,-3.077e-06,-3.077
1467.4460000000001,0.116277,-0.003198,,-3.198e-06,-3.198
1467.506,0.119376,-0.003256,,-3.2560000000000007e-06,-3.256
1467.567,0.122475,-0.003287,,-3.287e-06,-3.2869999999999995
1467.63,0.125574,-0.003304,,-3.3039999999999996e-06,-3.3040000000000003
1467.691,0.12884500000000002,-0.003315,,-3.315e-06,-3.315
1467.756,0.13228800000000002,-0.00337,,-3.3700000000000008e-06,-3.37
1467.82,0.135732,-0.003476,,-3.4760000000000003e-06,-3.4760000000000004
1467.882,0.138486,-0.003559000000000001,,-3.5590000000000006e-06,-3.5590000000000006
1467.944,0.141585,-0.003618,,-3.618e-06,-3.618
1468.005,0.14468399999999998,-0.003662,,-3.662e-06,-3.662
1468.068,0.147783,-0.003659,,-3.659000000000001e-06,-3.659
1468.132,0.151227,-0.003635,,-3.635e-06,-3.635
1468.1970000000001,0.154498,-0.003669,,-3.669e-06,-3.6689999999999996
1468.26,0.157597,-0.003766,,-3.766e-06,-3.766
1468.3229999999999,0.160696,-0.003835,,-3.8350000000000006e-06,-3.835
1468.384,0.163795,-0.003869,,-3.869e-06,-3.869
1468.4470000000001,0.166721,-0.003869,,-3.869e-06,-3.869
1468.507,0.169993,-0.00389,,-3.89e-06,-3.89
1468.569,0.17291900000000002,-0.003859000000000001,,-3.8590000000000015e-06,-3.859
1468.6329999999998,0.176191,-0.003821,,-3.821e-06,-3.821
1468.6960000000001,0.17929,-0.003852,,-3.8520000000000006e-06,-3.852
1468.757,0.182561,-0.00389,,-3.89e-06,-3.89
1468.818,0.185488,-0.003941,,-3.941e-06,-3.9410000000000003
1468.88,0.188587,-0.0040030000000000005,,-4.0030000000000005e-06,-4.003
1468.943,0.191513,-0.004048,,-4.047999999999998e-06,-4.047999999999999
1469.004,0.194612,-0.004065,,-4.065e-06,-4.065
1469.065,0.197711,-0.004062,,-4.0619999999999985e-06,-4.0619999999999985
1469.1270000000002,0.20081,-0.004041,,-4.040999999999998e-06,-4.041
1469.1889999999999,0.203909,-0.0040100000000000005,,-4.0100000000000006e-06,-4.010000000000002
1469.2579999999998,0.20718000000000006,-0.004027,,-4.0270000000000014e-06,-4.027
1469.319,0.210279,-0.004038,,-4.038e-06,-4.038
1469.382,0.213378,-0.004093,,-4.0930000000000005e-06,-4.093
1469.445,0.216477,-0.004089,,-4.089e-06,-4.089
1469.506,0.219576,-0.004072,,-4.072e-06,-4.072
1469.567,0.222675,-0.004031,,-4.031e-06,-4.031000000000001
1469.63,0.225774,-0.003983,,-3.983e-06,-3.983
1469.692,0.228873,-0.003941,,-3.941e-06,-3.9410000000000003
1469.757,0.2318,-0.003965,,-3.965e-06,-3.965
1469.82,0.235071,-0.004034,,-4.0340000000000015e-06,-4.034000000000002
1469.885,0.23817,-0.004034,,-4.0340000000000015e-06,-4.034000000000002
1469.9470000000001,0.241441,-0.003996,,-3.996e-06,-3.996
1470.007,0.244196,-0.003989,,-3.988999999999999e-06,-3.989
1470.068,0.247295,-0.003965,,-3.965e-06,-3.965
1470.132,0.250738,-0.00389,,-3.89e-06,-3.89
1470.1970000000001,0.253493,-0.0039310000000000005,,-3.931e-06,-3.931000000000001
1470.2620000000002,0.256764,-0.004027,,-4.0270000000000014e-06,-4.027
1470.325,0.260035,-0.004014,,-4.014e-06,-4.013999999999999
1470.388,0.26313400000000003,-0.003976,,-3.9760000000000006e-06,-3.976
1470.45,0.266233,-0.003928,,-3.928e-06,-3.928
1470.511,0.269332,-0.003907,,-3.907e-06,-3.907
1470.5720000000001,0.27225900000000003,-0.003897,,-3.897e-06,-3.897
1470.635,0.275358,-0.0039,,-3.9e-06,-3.9
1470.6970000000001,0.278285,-0.0039310000000000005,,-3.931e-06,-3.931000000000001
1470.769,0.282245,-0.0039310000000000005,,-3.931e-06,-3.931000000000001
1470.832,0.285344,-0.003848,,-3.848e-06,-3.8480000000000003
1470.895,0.288098,-0.003852,,-3.8520000000000006e-06,-3.852
1470.957,0.291025,-0.003869,,-3.869e-06,-3.869
1471.024,0.294641,-0.0039380000000000005,,-3.938e-06,-3.9380000000000006
1471.085,0.297567,-0.003917,,-3.917e-06,-3.917
1471.148,0.30101100000000003,-0.003841,,-3.841e-06,-3.841
1471.211,0.303938,-0.003779,,-3.779e-06,-3.779
1471.273,0.307037,-0.003742,,-3.742e-06,-3.742
1471.3370000000002,0.309963,-0.003779,,-3.779e-06,-3.779
1471.406,0.313579,-0.003807,,-3.8069999999999997e-06,-3.807
1471.47,0.31685,-0.003707,,-3.707e-06,-3.707
1471.54,0.320121,-0.003728,,-3.728e-06,-3.728
1471.604,0.323392,-0.003748,,-3.748e-06,-3.748
1471.6660000000002,0.326319,-0.003697,,-3.697e-06,-3.697
1471.729,0.32959,-0.003614,,-3.6139999999999996e-06,-3.614
1471.796,0.332861,-0.003542,,-3.5419999999999997e-06,-3.542
1471.859,0.33578800000000003,-0.003552000000000001,,-3.552000000000001e-06,-3.5520000000000005
1471.92,0.338887,-0.003559000000000001,,-3.5590000000000006e-06,-3.5590000000000006
1471.981,0.341814,-0.003532,,-3.532e-06,-3.532
1472.0410000000002,0.344913,-0.003501,,-3.501e-06,-3.5010000000000003
1472.1029999999998,0.34784,-0.003497,,-3.497e-06,-3.497
1472.165,0.351111,-0.0034700000000000004,,-3.47e-06,-3.4700000000000006
1472.23,0.35421,-0.003366,,-3.366e-06,-3.366
1472.296,0.357481,-0.0032600000000000003,,-3.26e-06,-3.26
1472.358,0.360408,-0.003246,,-3.2460000000000008e-06,-3.2460000000000004
1472.42,0.363335,-0.003266,,-3.266e-06,-3.266
1472.4820000000002,0.366434,-0.003253,,-3.253000000000001e-06,-3.253
1472.5420000000001,0.369361,-0.003222,,-3.222e-06,-3.222
1472.604,0.372632,-0.003211,,-3.2110000000000003e-06,-3.2110000000000003
1472.6670000000001,0.375559,-0.003163,,-3.163e-06,-3.1630000000000003
1472.73,0.378658,-0.003077,,-3.077e-06,-3.077
1472.7910000000002,0.381757,-0.003015,,-3.015e-06,-3.015
1472.8529999999998,0.385028,-0.002919,,-2.9190000000000008e-06,-2.9189999999999996
1472.9170000000001,0.388127,-0.002874,,-2.874e-06,-2.874
1472.98,0.391054,-0.002874,,-2.874e-06,-2.874
1473.04,0.394153,-0.002822,,-2.822e-06,-2.822
1473.101,0.397252,-0.002784,,-2.784e-06,-2.784
1473.1629999999998,0.400178,-0.002771,,-2.771e-06,-2.7710000000000004
1473.225,0.403277,-0.002726,,-2.726e-06,-2.7260000000000004
1473.2879999999998,0.406032,-0.002664,,-2.664e-06,-2.6639999999999997
1473.351,0.409475,-0.002533,,-2.533e-06,-2.5329999999999995
1473.412,0.4124020000000001,-0.002437,,-2.4369999999999997e-06,-2.437
1473.474,0.415501,-0.0023190000000000003,,-2.319e-06,-2.3190000000000004
1473.537,0.4186,-0.002227,,-2.227e-06,-2.227
1473.6,0.422043,-0.002165,,-2.165e-06,-2.165
1473.661,0.424798,-0.002085,,-2.085e-06,-2.085
1473.724,0.427897,-0.00202,,-2.02e-06,-2.02
1473.7879999999998,0.430824,-0.001913,,-1.913e-06,-1.913
1473.85,0.433751,-0.0017579999999999998,,-1.7579999999999995e-06,-1.7579999999999998
1473.9129999999998,0.43685,-0.001562,,-1.5619999999999998e-06,-1.5619999999999998
1473.976,0.439777,-0.001376,,-1.376e-06,-1.376
1474.0379999999998,0.4428760000000001,-0.001214,,-1.2140000000000002e-06,-1.214
1474.099,0.446147,-0.001066,,-1.066e-06,-1.0659999999999998
1474.1689999999999,0.449246,-0.000997,,-9.970000000000002e-07,-0.997
1474.245,0.453033,-0.000784,,-7.839999999999998e-07,-0.784
1474.308,0.45596,-0.0006490000000000001,,-6.490000000000001e-07,-0.649
1474.37,0.458887,-0.000488,,-4.879999999999999e-07,-0.488
1474.434,0.461986,-0.000298,,-2.98e-07,-0.298
1474.496,0.465085,-0.000154,,-1.54e-07,-0.154
1474.558,0.4683560000000001,-4.7e-05,,-4.7000000000000004e-08,-0.047
1474.62,0.471455,1.2e-05,,1.2e-08,0.012
1474.683,0.474554,3.6e-05,,3.6e-08,0.036000000000000004
1474.745,0.477481,4.3e-05,,4.3e-08,0.043
1474.808,0.480408,5.3e-05,,5.3e-08,0.053
1474.87,0.483507,7.7e-05,,7.7e-08,0.077
1474.932,0.486433,9.1e-05,,9.1e-08,0.091
1474.994,0.489532,0.000111,,1.11e-07,0.11100000000000003
1475.055,0.492804,0.000108,,1.08e-07,0.108
1475.122,0.496419,4.6e-05,,4.5999999999999995e-08,0.046
1475.182,0.499518,1.2e-05,,1.2e-08,0.012
1475.246,0.502617,-9.2e-05,,-9.199999999999999e-08,-0.092
1475.308,0.505888,-0.000147,,-1.47e-07,-0.147
1475.371,0.508471,-0.00015,,-1.5e-07,-0.15
1475.44,0.5124310000000001,-0.000116,,-1.16e-07,-0.116
1475.501,0.51553,-0.00014,,-1.3999999999999998e-07,-0.14
1475.5629999999999,0.5188010000000001,-0.000216,,-2.1600000000000005e-07,-0.21600000000000005
1475.625,0.521728,-0.00026000000000000003,,-2.6000000000000005e-07,-0.26
1475.6879999999999,0.524999,-0.000291,,-2.9100000000000005e-07,-0.29100000000000004
1475.755,0.528098,-0.000219,,-2.19e-07,-0.219
1475.818,0.531369,-0.000195,,-1.95e-07,-0.195
1475.88,0.534468,-0.000205,,-2.05e-07,-0.205
1475.945,0.5377390000000001,-0.000257,,-2.5699999999999993e-07,-0.25699999999999995
1476.0079999999998,0.54101,-0.000322,,-3.2200000000000005e-07,-0.322
1476.0710000000001,0.5437649999999999,-0.000312,,-3.12e-07,-0.312
1476.136,0.547036,-0.000219,,-2.19e-07,-0.219
1476.1960000000001,0.550135,-0.000202,,-2.0199999999999998e-07,-0.20199999999999999
1476.263,0.55375,-0.000209,,-2.09e-07,-0.209
1476.326,0.5568489999999999,-0.00024,,-2.4e-07,-0.24
1476.389,0.559948,-0.000254,,-2.54e-07,-0.254
1476.453,0.562875,-0.000195,,-1.95e-07,-0.195
1476.515,0.565974,-0.000143,,-1.43e-07,-0.14300000000000002
1476.578,0.569245,-8.499999999999999e-05,,-8.5e-08,-0.08499999999999999
1476.641,0.572344,-7.099999999999999e-05,,-7.099999999999999e-08,-0.071
1476.701,0.575271,-5.7e-05,,-5.7e-08,-0.057
1476.765,0.5787140000000001,-9.9e-05,,-9.9e-08,-0.099
1476.828,0.581641,-0.000136,,-1.36e-07,-0.136
1476.894,0.5847399999999999,-8.1e-05,,-8.1e-08,-0.081
1476.957,0.587839,-1.6e-05,,-1.5999999999999998e-08,-0.016
1477.0179999999998,0.590766,1.2e-05,,1.2e-08,0.012
1477.082,0.594209,2.5e-05,,2.5e-08,0.025
1477.146,0.597481,-3.7e-05,,-3.7e-08,-0.037000000000000005
1477.207,0.60058,-2.6e-05,,-2.6e-08,-0.026
1477.2679999999998,0.603506,-3e-05,,-3e-08,-0.03
1477.33,0.606433,-4e-05,,-4e-08,-0.04
1477.392,0.60936,-2.6e-05,,-2.6e-08,-0.026
1477.455,0.612631,2.2e-05,,2.2000000000000002e-08,0.022000000000000002
1477.517,0.61573,4.6e-05,,4.5999999999999995e-08,0.046
1477.58,0.618829,5.600000000000001e-05,,5.600000000000001e-08,0.056000000000000015
1477.6429999999998,0.6221,1.5e-05,,1.5e-08,0.015
1477.705,0.625199,-2.6e-05,,-2.6e-08,-0.026
1477.765,0.6282979999999999,-4.3e-05,,-4.3e-08,-0.043
1477.828,0.631397,-9.9e-05,,-9.9e-08,-0.099
1477.89,0.634324,-0.00013000000000000002,,-1.3000000000000005e-07,-0.13
1477.953,0.637251,-0.000116,,-1.16e-07,-0.116
1478.013,0.640522,-0.000116,,-1.16e-07,-0.116
1478.0739999999998,0.6432770000000001,-0.000112,,-1.12e-07,-0.11200000000000003
1478.136,0.646548,-8.1e-05,,-8.1e-08,-0.081
1478.1979999999999,0.649302,-8.1e-05,,-8.1e-08,-0.081
1478.257,0.652574,-8.8e-05,,-8.800000000000001e-08,-0.08800000000000001
1478.3210000000001,0.655845,-9.2e-05,,-9.199999999999999e-08,-0.092
1478.385,0.659116,-0.000143,,-1.43e-07,-0.14300000000000002
1478.4520000000002,0.662215,-0.000212,,-2.12e-07,-0.212
1478.514,0.6653140000000001,-0.000188,,-1.8800000000000002e-07,-0.188
1478.576,0.668413,-0.00015,,-1.5e-07,-0.15
1478.638,0.671512,-8.8e-05,,-8.800000000000001e-08,-0.08800000000000001
1478.7,0.674439,1.5e-05,,1.5e-08,0.015
1478.7620000000002,0.677538,0.000177,,1.7699999999999996e-07,0.177
1478.825,0.6806369999999999,0.000408,,4.0799999999999995e-07,0.408
1478.888,0.683736,0.0006519999999999999,,6.520000000000001e-07,0.6519999999999999
1478.95,0.6864899999999999,0.000907,,9.07e-07,0.907
1479.014,0.6894170000000001,0.001144,,1.144e-06,1.144
1479.075,0.692344,0.001251,,1.251e-06,1.251
1479.1370000000002,0.695271,0.0012369999999999998,,1.2369999999999998e-06,1.237
1479.201,0.6987140000000001,0.001113,,1.113e-06,1.113
1479.265,0.7021569999999999,0.0008789999999999999,,8.789999999999998e-07,0.8789999999999999
1479.3270000000002,0.705084,0.000662,,6.620000000000001e-07,0.662
1479.388,0.7083550000000001,0.00049,,4.9e-07,0.49
1479.4520000000002,0.711282,0.000356,,3.56e-07,0.35600000000000004
1479.514,0.714553,0.000297,,2.9699999999999997e-07,0.297
1479.5770000000002,0.71748,0.000263,,2.63e-07,0.263
1479.642,0.720924,0.000246,,2.46e-07,0.246
1479.7020000000002,0.724195,0.000208,,2.08e-07,0.208
1479.764,0.727294,0.000173,,1.73e-07,0.173
1479.825,0.7305649999999999,0.00014199999999999998,,1.4199999999999995e-07,0.142
1479.889,0.733664,0.000105,,1.05e-07,0.105
1479.953,0.736418,0.000156,,1.56e-07,0.156
1480.016,0.739517,0.000242,,2.4199999999999997e-07,0.242
1480.079,0.742789,0.000346,,3.46e-07,0.34600000000000003
1480.141,0.745888,0.000418,,4.18e-07,0.418
1480.2020000000002,0.748814,0.000487,,4.870000000000001e-07,0.487
1480.266,0.752258,0.0004940000000000001,,4.940000000000001e-07,0.4940000000000001
1480.33,0.755357,0.000535,,5.35e-07,0.535
1480.3929999999998,0.7582840000000001,0.0006450000000000001,,6.450000000000001e-07,0.645
1480.455,0.76121,0.0007830000000000001,,7.830000000000002e-07,0.7829999999999999
1480.519,0.764309,0.000962,,9.62e-07,0.9620000000000001
1480.5810000000001,0.767408,0.001072,,1.072e-06,1.072
1480.6429999999998,0.770335,0.001158,,1.158e-06,1.158
1480.704,0.7734340000000001,0.001244,,1.244e-06,1.2439999999999998
1480.767,0.776533,0.001286,,1.2859999999999998e-06,1.286
1480.829,0.779116,0.001355,,1.3550000000000002e-06,1.355
1480.891,0.7823869999999999,0.001444,,1.444e-06,1.444
1480.955,0.785141,0.001582,,1.5819999999999998e-06,1.5819999999999999
1481.0179999999998,0.7885850000000001,0.001737,,1.7369999999999998e-06,1.7369999999999999
1481.0910000000001,0.792028,0.001702,,1.702e-06,1.702
1481.151,0.794955,0.001768,,1.768e-06,1.768
1481.213,0.797882,0.00184,,1.84e-06,1.84
1481.275,0.800981,0.001933,,1.933e-06,1.933
1481.336,0.8037350000000001,0.002016,,2.016e-06,2.016
1481.398,0.8070069999999999,0.002085,,2.085e-06,2.085
1481.461,0.810106,0.002129,,2.129e-06,2.129
1481.526,0.813204,0.002133,,2.133e-06,2.133
1481.59,0.816476,0.002054,,2.054e-06,2.0540000000000003
1481.654,0.8194020000000001,0.002109,,2.109e-06,2.109
1481.7179999999998,0.822846,0.002219,,2.219e-06,2.219
1481.786,0.825945,0.002174,,2.174e-06,2.174
1481.845,0.829216,0.002188,,2.188e-06,2.188
1481.9070000000002,0.8321430000000001,0.002174,,2.174e-06,2.174
1481.971,0.835242,0.002146,,2.146e-06,2.146
1482.033,0.837996,0.002188,,2.188e-06,2.188
1482.0970000000002,0.84144,0.002257,,2.257e-06,2.257
1482.158,0.8445389999999999,0.002295,,2.295e-06,2.295
1482.221,0.8478100000000001,0.002315,,2.315e-06,2.315
1482.283,0.8507370000000001,0.002295,,2.295e-06,2.295
1482.344,0.853836,0.002288,,2.288e-06,2.2880000000000003
1482.406,0.8567620000000001,0.002253,,2.2530000000000003e-06,2.253
1482.47,0.8598610000000001,0.002219,,2.219e-06,2.219
1482.535,0.863133,0.002288,,2.288e-06,2.2880000000000003
1482.598,0.8664040000000001,0.002357,,2.357e-06,2.3569999999999998
1482.662,0.869503,0.002377,,2.377e-06,2.377
1482.723,0.872602,0.002381,,2.381e-06,2.381
1482.785,0.8755290000000001,0.00236,,2.3600000000000003e-06,2.3600000000000003
1482.848,0.8788,0.002315,,2.315e-06,2.315
1482.912,0.881899,0.002315,,2.315e-06,2.315
1482.973,0.884998,0.002353,,2.353e-06,2.353
1483.035,0.8880969999999999,0.002398,,2.398e-06,2.398
1483.096,0.8910239999999999,0.002456,,2.456e-06,2.456
1483.1589999999999,0.8911959999999999,0.001224,,1.224e-06,1.224
1483.2220000000002,0.889302,0.000353,,3.529999999999999e-07,0.353
1483.287,0.886892,3.2e-05,,3.1999999999999995e-08,0.032
