time,potential,current1_mA,coll_current,current1,current1_muA
2101.271,0.853147,0.001933,,1.933e-06,1.933
2101.34,0.85659,0.001998,,1.998e-06,1.998
2101.405,0.8596889999999999,0.002054,,2.054e-06,2.0540000000000003
2101.471,0.8629600000000001,0.001971,,1.9710000000000003e-06,1.9709999999999999
2101.54,0.8664040000000001,0.002023,,2.023e-06,2.023
2101.603,0.869503,0.002095,,2.0950000000000003e-06,2.095
2101.669,0.8729459999999999,0.00204,,2.0399999999999995e-06,2.04
2101.737,0.876217,0.002019,,2.019e-06,2.019
2101.801,0.8794879999999999,0.002109,,2.109e-06,2.109
2101.863,0.882415,0.00216,,2.16e-06,2.16
2101.929,0.8856860000000001,0.002136,,2.136e-06,2.136
2101.995,0.88913,0.002091,,2.091e-06,2.0909999999999997
2102.061,0.892229,0.00227,,2.27e-06,2.27
2102.131,0.8911959999999999,0.000418,,4.18e-07,0.418
2102.199,0.88913,-9.5e-05,,-9.5e-08,-0.095
2102.269,0.886547,-0.00027400000000000005,,-2.7400000000000004e-07,-0.27399999999999997
2102.334,0.883965,-0.00046,,-4.6e-07,-0.46
2102.399,0.8815540000000001,-0.000491,,-4.91e-07,-0.491
2102.465,0.8788,-0.000515,,-5.15e-07,-0.515
2102.529,0.876389,-0.0006389999999999999,,-6.389999999999999e-07,-0.6389999999999999
2102.591,0.8734629999999999,-0.000746,,-7.459999999999999e-07,-0.746
2102.658,0.870708,-0.000798,,-7.979999999999999e-07,-0.7979999999999999
2102.724,0.8674370000000001,-0.000746,,-7.459999999999999e-07,-0.746
2102.788,0.8648540000000001,-0.0008179999999999999,,-8.179999999999998e-07,-0.818
2102.853,0.8617549999999999,-0.000949,,-9.49e-07,-0.9490000000000001
2102.919,0.858656,-0.000939,,-9.39e-07,-0.939
2102.986,0.855557,-0.000897,,-8.97e-07,-0.897
2103.053,0.8522860000000001,-0.001049,,-1.049e-06,-1.0490000000000002
2103.12,0.849015,-0.001014,,-1.0140000000000002e-06,-1.0140000000000002
2103.186,0.845916,-0.000983,,-9.83e-07,-0.983
2103.25,0.842989,-0.00107,,-1.07e-06,-1.07
2103.315,0.8398899999999999,-0.001159,,-1.159e-06,-1.159
2103.382,0.8364469999999999,-0.001073,,-1.073e-06,-1.073
2103.447,0.833348,-0.001087,,-1.087e-06,-1.087
2103.513,0.830249,-0.001214,,-1.2140000000000002e-06,-1.214
2103.5789999999997,0.8269780000000001,-0.0012109999999999998,,-1.211e-06,-1.211
2103.6420000000003,0.8238790000000001,-0.001166,,-1.166e-06,-1.166
2103.7070000000003,0.82078,-0.001176,,-1.176e-06,-1.176
2103.772,0.8178529999999999,-0.001307,,-1.307e-06,-1.307
2103.8379999999997,0.8145819999999999,-0.001348,,-1.348e-06,-1.348
2103.901,0.811483,-0.001311,,-1.3109999999999998e-06,-1.311
2103.964,0.808212,-0.001297,,-1.2969999999999998e-06,-1.297
2104.03,0.805113,-0.001393,,-1.3929999999999998e-06,-1.393
2104.097,0.801842,-0.0015,,-1.5e-06,-1.5
2104.169,0.7983979999999999,-0.001472,,-1.4719999999999998e-06,-1.472
2104.234,0.795299,-0.00161,,-1.61e-06,-1.61
2104.303,0.791856,-0.001552,,-1.552e-06,-1.5519999999999998
2104.3779999999997,0.788068,-0.001713,,-1.7130000000000002e-06,-1.713
2104.464,0.784453,-0.001803,,-1.803e-06,-1.803
2104.5460000000003,0.780149,-0.001755,,-1.755e-06,-1.755
2104.633,0.775672,-0.001958,,-1.958e-06,-1.958
2104.701,0.772401,-0.001968,,-1.968e-06,-1.968
2104.7670000000003,0.769302,-0.001989,,-1.989e-06,-1.989
2104.8320000000003,0.766375,-0.00214,,-2.14e-06,-2.14
2104.897,0.763104,-0.00224,,-2.24e-06,-2.24
2104.962,0.759833,-0.00223,,-2.23e-06,-2.2300000000000004
2105.026,0.756734,-0.00224,,-2.24e-06,-2.24
2105.091,0.753635,-0.002364,,-2.364e-06,-2.3640000000000003
2105.158,0.750536,-0.002481,,-2.481e-06,-2.481
2105.23,0.7469210000000001,-0.002474,,-2.4739999999999995e-06,-2.474
2105.295,0.743822,-0.002602,,-2.602e-06,-2.6020000000000003
2105.361,0.74055,-0.00265,,-2.65e-06,-2.65
2105.43,0.737451,-0.002619,,-2.6190000000000003e-06,-2.6189999999999998
2105.5170000000003,0.732975,-0.002836,,-2.836e-06,-2.8360000000000003
2105.5879999999997,0.729704,-0.002798,,-2.798e-06,-2.798
2105.66,0.726089,-0.002994,,-2.9939999999999996e-06,-2.9939999999999998
2105.73,0.7229899999999999,-0.002998,,-2.9980000000000008e-06,-2.998
2105.8,0.719374,-0.003187,,-3.1869999999999997e-06,-3.1870000000000003
2105.868,0.7161029999999999,-0.003191,,-3.191e-06,-3.1910000000000003
2105.937,0.713004,-0.003445,,-3.445e-06,-3.4450000000000003
2106.005,0.709561,-0.00348,,-3.48e-06,-3.4799999999999995
2106.076,0.706462,-0.003742,,-3.742e-06,-3.742
2106.141,0.703018,-0.003903,,-3.9030000000000014e-06,-3.903
2106.206,0.699919,-0.004017,,-4.017e-06,-4.017
2106.2729999999997,0.6971649999999999,-0.004293,,-4.293e-06,-4.293
2106.339,0.693893,-0.0045780000000000005,,-4.578000000000002e-06,-4.578
2106.403,0.6907939999999999,-0.004726,,-4.726e-06,-4.726
2106.468,0.687868,-0.00475,,-4.75e-06,-4.75
2106.535,0.684769,-0.0047810000000000005,,-4.7810000000000005e-06,-4.7810000000000015
2106.603,0.6809810000000001,-0.004589,,-4.589e-06,-4.5889999999999995
2106.667,0.678054,-0.004251,,-4.2510000000000005e-06,-4.251
2106.736,0.674783,-0.004062,,-4.0619999999999985e-06,-4.0619999999999985
2106.819,0.670479,-0.003866,,-3.866e-06,-3.866
2106.894,0.666863,-0.003759,,-3.759e-06,-3.759
2106.968,0.663076,-0.003693,,-3.693e-06,-3.693
2107.041,0.659288,-0.003814,,-3.814e-06,-3.8139999999999996
2107.104,0.656189,-0.003773,,-3.773e-06,-3.773
2107.1710000000003,0.65309,-0.003766,,-3.766e-06,-3.766
2107.239,0.649647,-0.00389,,-3.89e-06,-3.89
2107.306,0.646031,-0.003817,,-3.817e-06,-3.8169999999999997
2107.3720000000003,0.643105,-0.003855,,-3.855e-06,-3.855
2107.436,0.640178,-0.003954999999999999,,-3.9549999999999986e-06,-3.9549999999999987
2107.502,0.636562,-0.003976,,-3.9760000000000006e-06,-3.976
2107.5679999999998,0.6332909999999999,-0.003921,,-3.921e-06,-3.9210000000000003
2107.63,0.630364,-0.003952000000000001,,-3.952e-06,-3.9520000000000013
2107.695,0.627437,-0.004069,,-4.069e-06,-4.069
2107.762,0.62365,-0.004096,,-4.0959999999999986e-06,-4.096
2107.828,0.6205510000000001,-0.004045,,-4.045e-06,-4.045
2107.8920000000003,0.617624,-0.0041,,-4.1000000000000006e-06,-4.1000000000000005
2107.9570000000003,0.614525,-0.004213000000000001,,-4.213000000000002e-06,-4.213000000000001
2108.0229999999997,0.611082,-0.00421,,-4.21e-06,-4.21
2108.0879999999997,0.6078100000000001,-0.004162,,-4.162e-06,-4.162
2108.151,0.605056,-0.0042,,-4.2000000000000004e-06,-4.2
2108.218,0.601785,-0.00432,,-4.32e-06,-4.32
2108.284,0.598341,-0.004275,,-4.2750000000000006e-06,-4.275
2108.348,0.595242,-0.004227000000000001,,-4.2269999999999995e-06,-4.227
2108.411,0.592316,-0.004244,,-4.244e-06,-4.244
2108.474,0.589217,-0.004299,,-4.299e-06,-4.299
2108.5389999999998,0.58629,-0.004361,,-4.361e-06,-4.3610000000000015
2108.606,0.58233,-0.004268,,-4.2680000000000005e-06,-4.268
2108.6710000000003,0.579575,-0.004262,,-4.262e-06,-4.2620000000000005
2108.741,0.575788,-0.004365,,-4.365e-06,-4.365
2108.806,0.572516,-0.004286,,-4.286e-06,-4.2860000000000005
2108.871,0.569762,-0.004275,,-4.2750000000000006e-06,-4.275
2108.937,0.566491,-0.004365,,-4.365e-06,-4.365
2109.001,0.5632199999999999,-0.004372,,-4.372e-06,-4.372
2109.072,0.559604,-0.004286,,-4.286e-06,-4.2860000000000005
2109.138,0.556333,-0.004375,,-4.3750000000000005e-06,-4.375
2109.205,0.552717,-0.004313,,-4.313e-06,-4.313
2109.271,0.549791,-0.004279,,-4.279e-06,-4.279
2109.337,0.546519,-0.004382,,-4.382e-06,-4.382
2109.403,0.543248,-0.004375,,-4.3750000000000005e-06,-4.375
2109.468,0.539805,-0.004306,,-4.306e-06,-4.306
2109.534,0.536878,-0.004361,,-4.361e-06,-4.3610000000000015
2109.596,0.533779,-0.004423,,-4.423e-06,-4.423
2109.659,0.530508,-0.004472,,-4.4720000000000006e-06,-4.4719999999999995
2109.7270000000003,0.527237,-0.004416,,-4.416000000000001e-06,-4.416
2109.794,0.5239659999999999,-0.004461,,-4.4609999999999985e-06,-4.4609999999999985
2109.859,0.520695,-0.004558,,-4.5579999999999985e-06,-4.558
2109.924,0.517251,-0.004543999999999999,,-4.543999999999998e-06,-4.544
2109.99,0.514152,-0.004520000000000001,,-4.520000000000002e-06,-4.5200000000000005
2110.055,0.511053,-0.004627,,-4.627e-06,-4.627
2110.118,0.507954,-0.004716,,-4.7159999999999986e-06,-4.715999999999998
2110.1839999999997,0.504339,-0.00473,,-4.73e-06,-4.73
2110.251,0.50124,-0.004716,,-4.7159999999999986e-06,-4.715999999999998
2110.3160000000003,0.498141,-0.00485,,-4.85e-06,-4.8500000000000005
2110.381,0.494697,-0.004936,,-4.9360000000000015e-06,-4.936
2110.447,0.491254,-0.004912,,-4.912e-06,-4.912
2110.511,0.4883270000000001,-0.004943,,-4.943e-06,-4.9430000000000005
2110.574,0.485228,-0.005026,,-5.026e-06,-5.026
2110.641,0.482129,-0.005146,,-5.146e-06,-5.146000000000001
2110.706,0.4785140000000001,-0.005095000000000001,,-5.095e-06,-5.0950000000000015
2110.777,0.475415,-0.005164,,-5.164e-06,-5.1640000000000015
2110.859,0.471111,-0.005191,,-5.190999999999998e-06,-5.191
2110.931,0.467495,-0.005047,,-5.047e-06,-5.0470000000000015
2111.011,0.463191,-0.004981,,-4.981e-06,-4.981
2111.083,0.459403,-0.004971,,-4.971e-06,-4.971
2111.155,0.456132,-0.004816,,-4.816e-06,-4.816
2111.239,0.4516560000000001,-0.004688,,-4.6880000000000015e-06,-4.6880000000000015
2111.313,0.447868,-0.004423,,-4.423e-06,-4.423
2111.396,0.443736,-0.004265,,-4.265e-06,-4.265
2111.484,0.439088,-0.004045,,-4.045e-06,-4.045
2111.5570000000002,0.4353,-0.003876,,-3.876e-06,-3.8760000000000003
2111.624,0.431685,-0.003683,,-3.683e-06,-3.6830000000000003
2111.6910000000003,0.428414,-0.0034630000000000004,,-3.4630000000000006e-06,-3.4630000000000005
2111.763,0.424798,-0.003425,,-3.425e-06,-3.4250000000000003
2111.841,0.420666,-0.003291,,-3.290999999999999e-06,-3.2909999999999995
2111.9179999999997,0.416878,-0.003167,,-3.167e-06,-3.1670000000000003
2112.01,0.41223,-0.002919,,-2.9190000000000008e-06,-2.9189999999999996
2112.078,0.408787,-0.002963,,-2.9630000000000003e-06,-2.963
2112.144,0.405343,-0.002839,,-2.839e-06,-2.839
2112.212,0.402244,-0.002715,,-2.715e-06,-2.715
2112.2870000000003,0.398285,-0.002671,,-2.6710000000000003e-06,-2.6710000000000003
2112.375,0.394153,-0.002681,,-2.6810000000000003e-06,-2.681
2112.451,0.390193,-0.002554,,-2.554e-06,-2.5540000000000003
2112.5170000000003,0.386922,-0.002636,,-2.6360000000000003e-06,-2.636
2112.584,0.383478,-0.00255,,-2.55e-06,-2.5500000000000003
2112.65,0.380379,-0.002464,,-2.464e-06,-2.464
2112.715,0.37728,-0.002536,,-2.536e-06,-2.536
2112.78,0.374009,-0.002557,,-2.5570000000000003e-06,-2.5570000000000004
2112.848,0.370738,-0.002409,,-2.409e-06,-2.4090000000000003
2112.913,0.367467,-0.002457,,-2.457e-06,-2.457
2112.979,0.364368,-0.00254,,-2.54e-06,-2.54
2113.044,0.361097,-0.00245,,-2.45e-06,-2.45
2113.107,0.35817,-0.002406,,-2.406e-06,-2.406
2113.172,0.354727,-0.00244,,-2.44e-06,-2.44
2113.238,0.351455,-0.002543,,-2.543e-06,-2.543
2113.304,0.348356,-0.002471,,-2.471e-06,-2.471
2113.368,0.34543,-0.002406,,-2.406e-06,-2.406
2113.4339999999997,0.341986,-0.002468,,-2.4680000000000003e-06,-2.468
2113.5,0.338715,-0.002512,,-2.512e-06,-2.512
2113.5660000000003,0.335616,-0.002385,,-2.385e-06,-2.385
2113.629,0.332517,-0.002357,,-2.357e-06,-2.3569999999999998
2113.695,0.329074,-0.002447,,-2.447e-06,-2.447
2113.761,0.325975,-0.002447,,-2.447e-06,-2.447
2113.84,0.322187,-0.002457,,-2.457e-06,-2.457
2113.907,0.318916,-0.00233,,-2.33e-06,-2.33
2113.973,0.315473,-0.002395,,-2.395e-06,-2.395
2114.042,0.312546,-0.002416,,-2.416e-06,-2.4160000000000004
2114.104,0.309103,-0.002361,,-2.361e-06,-2.361
2114.17,0.306004,-0.002323,,-2.323e-06,-2.323
2114.236,0.302732,-0.002437,,-2.4369999999999997e-06,-2.437
2114.301,0.299633,-0.002412,,-2.412e-06,-2.412
2114.369,0.29619,-0.002309,,-2.3090000000000003e-06,-2.309
2114.4539999999997,0.292575,-0.002323,,-2.323e-06,-2.323
2114.531,0.288271,-0.002316,,-2.316e-06,-2.316
2114.599,0.284999,-0.002412,,-2.412e-06,-2.412
2114.665,0.2819,-0.002292,,-2.292e-06,-2.2920000000000003
2114.7329999999997,0.278285,-0.0023190000000000003,,-2.319e-06,-2.3190000000000004
2114.799,0.275186,-0.0023710000000000003,,-2.3710000000000003e-06,-2.3710000000000004
2114.863,0.27225900000000003,-0.002285,,-2.285e-06,-2.285
2114.93,0.268644,-0.00222,,-2.22e-06,-2.22
2114.996,0.265372,-0.002316,,-2.316e-06,-2.316
2115.0589999999997,0.262273,-0.0023190000000000003,,-2.319e-06,-2.3190000000000004
2115.1279999999997,0.259347,-0.002202,,-2.202e-06,-2.202
2115.198,0.255387,-0.002302,,-2.302e-06,-2.302
2115.264,0.25246,-0.00222,,-2.22e-06,-2.22
2115.33,0.249189,-0.002168,,-2.1680000000000002e-06,-2.168
2115.394,0.245746,-0.00224,,-2.24e-06,-2.24
2115.46,0.242647,-0.002285,,-2.285e-06,-2.285
2115.526,0.23972,-0.002178,,-2.178e-06,-2.1780000000000004
2115.5879999999997,0.236449,-0.002158,,-2.158e-06,-2.158
2115.652,0.233177,-0.002189,,-2.189e-06,-2.189
2115.719,0.23007800000000006,-0.002289,,-2.2890000000000004e-06,-2.289
2115.784,0.227152,-0.002206,,-2.206e-06,-2.206
2115.849,0.223708,-0.002151,,-2.151e-06,-2.151
2115.915,0.220437,-0.002247,,-2.247e-06,-2.247
2115.981,0.217338,-0.002268,,-2.268e-06,-2.268
2116.048,0.213895,-0.002154,,-2.154e-06,-2.154
2116.113,0.210624,-0.002209,,-2.209e-06,-2.209
2116.177,0.207353,-0.002292,,-2.292e-06,-2.2920000000000003
2116.243,0.204426,-0.002261,,-2.261e-06,-2.261
2116.3089999999997,0.200982,-0.002182,,-2.182e-06,-2.182
2116.374,0.197883,-0.002261,,-2.261e-06,-2.261
2116.438,0.194612,-0.00235,,-2.35e-06,-2.35
2116.504,0.191513,-0.002306,,-2.306e-06,-2.306
2116.57,0.188587,-0.002254,,-2.254e-06,-2.254
2116.632,0.185315,-0.002306,,-2.306e-06,-2.306
2116.703,0.181872,-0.002412,,-2.412e-06,-2.412
2116.769,0.178429,-0.002333,,-2.333e-06,-2.333
2116.835,0.17533,-0.002443,,-2.443e-06,-2.443
2116.902,0.172059,-0.002516,,-2.516e-06,-2.516
2116.966,0.169132,-0.002485,,-2.4850000000000003e-06,-2.4850000000000003
2117.034,0.16586099999999998,-0.002512,,-2.512e-06,-2.512
2117.101,0.162245,-0.002633,,-2.633e-06,-2.633
2117.165,0.159146,-0.002598,,-2.598e-06,-2.5980000000000003
2117.232,0.156047,-0.002578,,-2.578e-06,-2.5780000000000003
2117.297,0.152776,-0.002705,,-2.705e-06,-2.705
2117.362,0.149677,-0.002764,,-2.7639999999999997e-06,-2.764
2117.427,0.146406,-0.002712,,-2.712e-06,-2.7119999999999997
2117.492,0.143307,-0.002736,,-2.736e-06,-2.736
2117.556,0.14038,-0.00286,,-2.86e-06,-2.8600000000000003
2117.619,0.13710899999999998,-0.0029530000000000003,,-2.9530000000000008e-06,-2.9530000000000003
2117.683,0.13401,-0.002994,,-2.9939999999999996e-06,-2.9939999999999998
2117.748,0.13073900000000002,-0.0029530000000000003,,-2.9530000000000008e-06,-2.9530000000000003
2117.8160000000003,0.12764,-0.0030800000000000003,,-3.08e-06,-3.08
2117.882,0.124369,-0.003191,,-3.191e-06,-3.1910000000000003
2117.948,0.121098,-0.003163,,-3.163e-06,-3.1630000000000003
2118.011,0.117999,-0.003204,,-3.204e-06,-3.204
2118.083,0.114383,-0.003408,,-3.4080000000000002e-06,-3.408
2118.17,0.110251,-0.003421,,-3.4210000000000004e-06,-3.4210000000000003
2118.241,0.106808,-0.003649,,-3.6489999999999997e-06,-3.649000000000001
2118.312,0.103537,-0.003649,,-3.6489999999999997e-06,-3.649000000000001
2118.379,0.100438,-0.003866,,-3.866e-06,-3.866
2118.464,0.095789,-0.004069,,-4.069e-06,-4.069
2118.547,0.092002,-0.004217,,-4.2170000000000005e-06,-4.2170000000000005
2118.62,0.08872999999999999,-0.004478,,-4.478e-06,-4.4780000000000015
2118.688,0.085115,-0.004623,,-4.6230000000000005e-06,-4.622999999999998
2118.758,0.08236,-0.00493,,-4.9299999999999985e-06,-4.93
2118.827,0.078573,-0.005184,,-5.184e-06,-5.184
2118.895,0.075818,-0.005508,,-5.508e-06,-5.507999999999999
2118.962,0.072375,-0.005976,,-5.975999999999998e-06,-5.976
2119.032,0.069276,-0.006331,,-6.331e-06,-6.331
2119.096,0.066349,-0.006889,,-6.889e-06,-6.888999999999999
2119.1620000000003,0.063078,-0.007556999999999999,,-7.557000000000001e-06,-7.556999999999999
2119.2270000000003,0.060151,-0.008201,,-8.201e-06,-8.201
2119.2929999999997,0.057396,-0.009013,,-9.013e-06,-9.013
2119.359,0.054986,-0.009853,,-9.853e-06,-9.853000000000002
2119.422,0.05533,-0.004912,,-4.912e-06,-4.912
2119.488,0.056535,-0.002598,,-2.598e-06,-2.5980000000000003
2119.555,0.058774,-0.001417,,-1.4170000000000004e-06,-1.4169999999999998
2119.623,0.060495000000000014,-0.000608,,-6.079999999999999e-07,-0.608
2119.686,0.06273300000000001,5.600000000000001e-05,,5.600000000000001e-08,0.056000000000000015
2119.752,0.065488,0.000618,,6.18e-07,0.618
2119.817,0.068243,0.00091,,9.1e-07,0.91
2119.883,0.070653,0.001138,,1.1380000000000002e-06,1.138
2119.95,0.07357999999999999,0.001423,,1.4230000000000002e-06,1.423
2120.019,0.076679,0.001437,,1.437e-06,1.4369999999999998
2120.084,0.079606,0.0014960000000000002,,1.4960000000000004e-06,1.4960000000000002
2120.149,0.082705,0.001582,,1.5819999999999998e-06,1.5819999999999999
2120.215,0.085976,0.00154,,1.54e-06,1.54
2120.298,0.09028,0.001441,,1.4409999999999998e-06,1.4409999999999998
2120.374,0.094068,0.001441,,1.4409999999999998e-06,1.4409999999999998
2120.449,0.097339,0.001337,,1.337e-06,1.337
2120.519,0.101298,0.001186,,1.186e-06,1.186
2120.59,0.104742,0.00121,,1.2099999999999998e-06,1.21
2120.659,0.108529,0.001021,,1.0209999999999998e-06,1.021
2120.725,0.111456,0.000976,,9.759999999999998e-07,0.976
2120.79,0.1149,0.000986,,9.86e-07,0.986
2120.8579999999997,0.118515,0.000814,,8.140000000000002e-07,0.8140000000000001
2120.924,0.121614,0.000745,,7.45e-07,0.745
2120.99,0.12523,0.000779,,7.790000000000001e-07,0.7789999999999999
2121.055,0.128501,0.000676,,6.76e-07,0.6759999999999999
2121.118,0.1316,0.000556,,5.560000000000001e-07,0.5559999999999999
2121.186,0.135215,0.000556,,5.560000000000001e-07,0.5559999999999999
2121.255,0.13883099999999998,0.0005139999999999999,,5.139999999999999e-07,0.5139999999999999
2121.321,0.142102,0.00037,,3.7e-07,0.37
2121.39,0.145545,0.000449,,4.49e-07,0.449
2121.4629999999997,0.149333,0.000291,,2.9100000000000005e-07,0.29100000000000004
2121.5429999999997,0.15312,0.000232,,2.32e-07,0.232
2121.619,0.15708,0.000177,,1.7699999999999996e-07,0.177
2121.6910000000003,0.160868,0.000263,,2.63e-07,0.263
2121.76,0.16431099999999998,9.8e-05,,9.8e-08,0.098
2121.827,0.16758199999999998,0.000184,,1.8399999999999998e-07,0.184
2121.893,0.171026,0.000146,,1.4599999999999998e-07,0.146
2121.959,0.174469,1.2e-05,,1.2e-08,0.012
2122.025,0.17774,5.600000000000001e-05,,5.600000000000001e-08,0.056000000000000015
2122.09,0.181011,9.4e-05,,9.400000000000001e-08,0.094
2122.153,0.18411,2.9e-05,,2.9e-08,0.029
2122.218,0.187209,-9.2e-05,,-9.199999999999999e-08,-0.092
2122.2870000000003,0.190997,8e-06,,7.999999999999999e-09,0.008
2122.3520000000003,0.194096,-2.6e-05,,-2.6e-08,-0.026
2122.417,0.197023,-0.00015,,-1.5e-07,-0.15
2122.482,0.200638,-0.000154,,-1.54e-07,-0.154
2122.547,0.203909,-6.8e-05,,-6.8e-08,-0.068
2122.611,0.20718000000000006,-8.499999999999999e-05,,-8.5e-08,-0.08499999999999999
2122.675,0.210107,-0.000171,,-1.71e-07,-0.171
2122.74,0.213378,-0.000226,,-2.26e-07,-0.226
2122.806,0.216822,-0.00014,,-1.3999999999999998e-07,-0.14
2122.871,0.219921,-0.000116,,-1.16e-07,-0.116
2122.937,0.223192,-0.000226,,-2.26e-07,-0.226
2123.0,0.226119,-0.000257,,-2.5699999999999993e-07,-0.25699999999999995
2123.0660000000003,0.23007800000000006,-0.000157,,-1.57e-07,-0.157
2123.132,0.232833,-0.000147,,-1.47e-07,-0.147
2123.206,0.236965,-0.000171,,-1.71e-07,-0.171
2123.272,0.239892,-0.000157,,-1.57e-07,-0.157
2123.34,0.243163,-0.000278,,-2.7800000000000003e-07,-0.278
2123.405,0.246606,-0.000202,,-2.0199999999999998e-07,-0.20199999999999999
2123.471,0.249878,-0.000171,,-1.71e-07,-0.171
2123.538,0.252977,-0.000305,,-3.05e-07,-0.305
2123.603,0.256592,-0.000271,,-2.7100000000000003e-07,-0.271
2123.666,0.259691,-0.000233,,-2.33e-07,-0.233
2123.732,0.26279,-0.000254,,-2.54e-07,-0.254
2123.82,0.267266,-0.00036,,-3.600000000000001e-07,-0.36000000000000004
2123.886,0.27071,-0.000264,,-2.6400000000000003e-07,-0.264
2123.955,0.273809,-0.000326,,-3.2600000000000003e-07,-0.326
2124.021,0.277252,-0.00036,,-3.600000000000001e-07,-0.36000000000000004
2124.093,0.280695,-0.000302,,-3.0200000000000003e-07,-0.30200000000000005
2124.163,0.28431100000000004,-0.000336,,-3.36e-07,-0.336
2124.226,0.287582,-0.00027400000000000005,,-2.7400000000000004e-07,-0.27399999999999997
2124.2889999999998,0.29085300000000003,-0.00024700000000000004,,-2.4700000000000003e-07,-0.24700000000000005
