time,potential,current1_mA,coll_current,current1,current1_muA
503.244,0.053609,-0.025631,,-2.5631e-05,-25.631
503.30300000000005,0.054642,-0.020703,,-2.0703e-05,-20.703000000000003
503.361,0.056019000000000006,-0.018427,,-1.8427e-05,-18.427000000000003
503.418,0.057741,-0.016909,,-1.6909e-05,-16.909000000000002
503.475,0.05980700000000001,-0.015769,,-1.5768999999999998e-05,-15.768999999999998
503.534,0.062217,-0.014877,,-1.4877000000000003e-05,-14.877
503.592,0.064799,-0.014213,,-1.4213e-05,-14.213
503.651,0.067554,-0.013696000000000002,,-1.3696000000000002e-05,-13.696000000000002
503.708,0.070309,-0.013317,,-1.3317e-05,-13.316999999999998
503.76599999999996,0.07323500000000001,-0.013001,,-1.3000999999999996e-05,-13.001
503.825,0.076162,-0.012777,,-1.2777e-05,-12.777
503.89,0.07908899999999999,-0.012663,,-1.2663e-05,-12.662999999999998
503.94599999999997,0.08201599999999999,-0.012525,,-1.2525e-05,-12.525
504.006,0.08494299999999999,-0.012439,,-1.2439e-05,-12.439
504.064,0.088042,-0.012336,,-1.2335999999999998e-05,-12.335999999999999
504.124,0.090969,-0.012281,,-1.2281e-05,-12.280999999999999
504.181,0.093895,-0.012198,,-1.2197999999999999e-05,-12.198
504.23900000000003,0.09665,-0.012167,,-1.2167e-05,-12.167000000000002
504.29699999999997,0.099577,-0.012157,,-1.2157e-05,-12.157
504.356,0.102504,-0.01216,,-1.216e-05,-12.159999999999998
504.412,0.105258,-0.012195,,-1.2195e-05,-12.195
504.469,0.108529,-0.012178,,-1.2178e-05,-12.178
504.527,0.111456,-0.012143,,-1.2142999999999999e-05,-12.142999999999999
504.587,0.114211,-0.012102,,-1.2102e-05,-12.102
504.64599999999996,0.117482,-0.012043,,-1.2043e-05,-12.043
504.70300000000003,0.120065,-0.011954,,-1.1954e-05,-11.954
504.76199999999994,0.123164,-0.011895,,-1.1895e-05,-11.895
504.82099999999997,0.125918,-0.011847,,-1.1847e-05,-11.847000000000001
504.88,0.12901700000000002,-0.011806,,-1.1805999999999998e-05,-11.806
504.936,0.131772,-0.011806,,-1.1805999999999998e-05,-11.806
504.99300000000005,0.134354,-0.011823,,-1.1823e-05,-11.823
505.051,0.137453,-0.01182,,-1.182e-05,-11.82
505.10900000000004,0.14038,-0.011792,,-1.1792e-05,-11.792
505.17199999999997,0.143479,-0.011761,,-1.1761e-05,-11.761
505.23,0.146406,-0.011761,,-1.1761e-05,-11.761
505.289,0.149333,-0.01174,,-1.174e-05,-11.74
505.347,0.15225999999999998,-0.011699,,-1.1699000000000001e-05,-11.699000000000002
505.406,0.155186,-0.011658,,-1.1658e-05,-11.658
505.465,0.158113,-0.011606,,-1.1605999999999999e-05,-11.606
505.525,0.16104000000000002,-0.011561,,-1.1561e-05,-11.561
505.58099999999996,0.163795,-0.011465,,-1.1465e-05,-11.465000000000002
505.63800000000003,0.166549,-0.01143,,-1.143e-05,-11.43
505.69699999999995,0.169304,-0.011393,,-1.1393e-05,-11.392999999999999
505.756,0.172403,-0.011365,,-1.1365e-05,-11.365
505.814,0.17533,-0.011358,,-1.1358e-05,-11.357999999999999
505.87199999999996,0.178084,-0.011348,,-1.1347999999999999e-05,-11.347999999999999
505.93,0.181183,-0.011324,,-1.1324e-05,-11.324000000000002
505.986,0.183938,-0.011251,,-1.1251e-05,-11.251
506.045,0.186865,-0.011193,,-1.1193e-05,-11.193
506.105,0.189792,-0.011158,,-1.1158e-05,-11.158
506.164,0.192546,-0.011093,,-1.1093e-05,-11.093
506.222,0.195645,-0.011014,,-1.1014000000000002e-05,-11.014000000000001
506.281,0.1984,-0.010962,,-1.0962e-05,-10.962000000000002
506.341,0.201499,-0.010914,,-1.0914e-05,-10.914000000000001
506.403,0.204598,-0.01089,,-1.089e-05,-10.89
506.459,0.207353,-0.0108,,-1.0800000000000002e-05,-10.8
506.51800000000003,0.210107,-0.010756,,-1.0755999999999998e-05,-10.755999999999998
506.577,0.213034,-0.0107,,-1.07e-05,-10.7
506.64099999999996,0.216477,-0.010632,,-1.0632000000000001e-05,-10.632
506.69800000000004,0.21906,-0.010566,,-1.0565999999999997e-05,-10.566
506.75699999999995,0.221987,-0.010515,,-1.0515e-05,-10.515
506.81699999999995,0.225086,-0.010439,,-1.0439e-05,-10.439
506.875,0.228012,-0.010415,,-1.0415e-05,-10.415
506.931,0.230595,-0.010425,,-1.0425e-05,-10.425
506.98800000000006,0.233522,-0.010377,,-1.0377e-05,-10.377
507.046,0.236449,-0.010291,,-1.0290999999999999e-05,-10.290999999999999
507.10400000000004,0.23920300000000005,-0.010191,,-1.0191e-05,-10.191
507.163,0.24213,-0.010098,,-1.0097999999999999e-05,-10.097999999999999
507.224,0.245057,-0.010063,,-1.0062999999999997e-05,-10.063
507.283,0.248156,-0.009984,,-9.984e-06,-9.984
507.342,0.250911,-0.009895,,-9.895e-06,-9.895
507.403,0.25401,-0.009857,,-9.857e-06,-9.857000000000001
507.459,0.256764,-0.00974,,-9.74e-06,-9.74
507.517,0.259519,-0.009705,,-9.705e-06,-9.705
507.575,0.262618,-0.009664,,-9.664e-06,-9.664
507.63300000000004,0.265372,-0.009633,,-9.633e-06,-9.633
507.691,0.268127,-0.009619,,-9.619e-06,-9.619
507.75300000000004,0.271226,-0.009513,,-9.513e-06,-9.512999999999998
507.811,0.274325,-0.009482,,-9.481999999999997e-06,-9.482000000000001
507.87,0.27708,-0.009423,,-9.423e-06,-9.423
507.92900000000003,0.280179,-0.009358,,-9.358e-06,-9.357999999999999
507.985,0.282589,-0.009251,,-9.251e-06,-9.251
508.045,0.285688,-0.009165,,-9.165e-06,-9.165
508.10400000000004,0.288615,-0.009082,,-9.082e-06,-9.082
508.163,0.291714,-0.008981999999999999,,-8.981999999999996e-06,-8.982000000000001
508.227,0.294813,-0.008975,,-8.975e-06,-8.975
508.286,0.297567,-0.008886,,-8.886000000000001e-06,-8.886000000000001
508.346,0.300666,-0.008803,,-8.803e-06,-8.802999999999999
508.405,0.303593,-0.0087,,-8.7e-06,-8.7
508.461,0.30652,-0.008545,,-8.545e-06,-8.545
508.519,0.309103,-0.008449,,-8.449e-06,-8.449
508.57800000000003,0.312202,-0.008359,,-8.358999999999999e-06,-8.359
508.63699999999994,0.315128,-0.00828,,-8.279999999999999e-06,-8.28
508.7,0.31805500000000003,-0.008183,,-8.183e-06,-8.183
508.75800000000004,0.321154,-0.008087,,-8.087e-06,-8.087
508.81699999999995,0.324081,-0.008008,,-8.008e-06,-8.008
508.876,0.327008,-0.007929,,-7.929e-06,-7.928999999999999
508.935,0.329935,-0.007856,,-7.856e-06,-7.856
508.991,0.332689,-0.007843000000000001,,-7.843000000000001e-06,-7.843000000000001
509.051,0.335616,-0.007763,,-7.763e-06,-7.763
509.10900000000004,0.338543,-0.007698,,-7.698e-06,-7.6979999999999995
509.168,0.341125,-0.007512,,-7.512e-06,-7.512
509.225,0.344052,-0.007309,,-7.3090000000000015e-06,-7.309
509.283,0.346979,-0.00715,,-7.15e-06,-7.15
509.341,0.349734,-0.007006,,-7.006e-06,-7.006
509.403,0.352833,-0.006909,,-6.908999999999999e-06,-6.909
509.459,0.355587,-0.006792,,-6.792e-06,-6.792000000000002
509.51800000000003,0.358514,-0.006675,,-6.675000000000001e-06,-6.675000000000002
509.577,0.361441,-0.006603,,-6.602999999999999e-06,-6.6030000000000015
509.63599999999997,0.364368,-0.006534000000000001,,-6.534000000000001e-06,-6.534000000000002
509.69300000000004,0.367123,-0.006469,,-6.468999999999999e-06,-6.468999999999999
509.75,0.369877,-0.0064340000000000005,,-6.434000000000001e-06,-6.434
509.80699999999996,0.372804,-0.006358,,-6.358e-06,-6.358
509.865,0.375731,-0.006193,,-6.193e-06,-6.193
509.923,0.378485,-0.006028,,-6.028000000000001e-06,-6.0280000000000005
509.981,0.381412,-0.005907,,-5.907e-06,-5.907
510.04,0.384339,-0.005794,,-5.794e-06,-5.794
510.1,0.387266,-0.005701,,-5.7009999999999984e-06,-5.7010000000000005
510.158,0.390193,-0.005608,,-5.6079999999999995e-06,-5.6080000000000005
510.216,0.39312,-0.005522,,-5.522000000000001e-06,-5.522
510.28,0.396219,-0.005353,,-5.352999999999999e-06,-5.353
510.338,0.398801,-0.005246,,-5.2459999999999986e-06,-5.246
510.39599999999996,0.401728,-0.005195,,-5.195e-06,-5.195
510.454,0.404655,-0.005047,,-5.047e-06,-5.0470000000000015
510.51,0.407581,-0.004881,,-4.881e-06,-4.881
510.57,0.410508,-0.004668,,-4.668e-06,-4.668
510.629,0.4134350000000001,-0.004492,,-4.4919999999999995e-06,-4.492
510.689,0.416362,-0.004313,,-4.313e-06,-4.313
510.74699999999996,0.418944,-0.004113,,-4.113e-06,-4.113
510.806,0.422043,-0.003921,,-3.921e-06,-3.9210000000000003
510.86699999999996,0.42497,-0.0037,,-3.7000000000000006e-06,-3.7
510.931,0.427897,-0.003525,,-3.525e-06,-3.525
510.98699999999997,0.430996,-0.003287,,-3.287e-06,-3.2869999999999995
511.045,0.433751,-0.003015,,-3.015e-06,-3.015
511.105,0.436505,-0.002808,,-2.808e-06,-2.8080000000000003
511.163,0.439432,-0.002564,,-2.564e-06,-2.5639999999999996
511.222,0.442187,-0.002302,,-2.302e-06,-2.302
511.281,0.444941,-0.002075,,-2.075e-06,-2.075
511.341,0.447696,-0.001841,,-1.841e-06,-1.841
511.403,0.450967,-0.001631,,-1.631e-06,-1.6309999999999998
511.461,0.453722,-0.001404,,-1.4039999999999998e-06,-1.4040000000000001
511.522,0.456477,-0.0012109999999999998,,-1.211e-06,-1.211
511.579,0.4592310000000001,-0.001042,,-1.042e-06,-1.042
511.63599999999997,0.461986,-0.000939,,-9.39e-07,-0.939
511.694,0.464913,-0.000808,,-8.079999999999999e-07,-0.8079999999999999
511.754,0.46784,-0.0006389999999999999,,-6.389999999999999e-07,-0.6389999999999999
511.81199999999995,0.4709390000000001,-0.000588,,-5.88e-07,-0.588
511.876,0.473693,-0.000453,,-4.53e-07,-0.45299999999999996
511.935,0.476792,-0.0004150000000000001,,-4.150000000000001e-07,-0.415
511.994,0.479719,-0.000377,,-3.7700000000000005e-07,-0.377
512.052,0.482646,-0.000353,,-3.529999999999999e-07,-0.353
512.1080000000001,0.485917,-0.000343,,-3.43e-07,-0.343
512.168,0.488844,-0.00034,,-3.4e-07,-0.34
512.226,0.491771,-0.000333,,-3.3300000000000003e-07,-0.33299999999999996
512.285,0.494697,-0.000333,,-3.3300000000000003e-07,-0.33299999999999996
512.3430000000001,0.497624,-0.00032900000000000003,,-3.2900000000000005e-07,-0.32899999999999996
512.401,0.500551,-0.000319,,-3.19e-07,-0.319
512.4590000000001,0.503306,-0.000333,,-3.3300000000000003e-07,-0.33299999999999996
512.518,0.506233,-0.000398,,-3.98e-07,-0.39799999999999996
512.575,0.508987,-0.000443,,-4.43e-07,-0.44299999999999995
512.634,0.5120859999999999,-0.000481,,-4.81e-07,-0.48100000000000004
512.693,0.515185,-0.000532,,-5.32e-07,-0.532
512.751,0.518112,-0.000539,,-5.389999999999999e-07,-0.539
512.807,0.521211,-0.000522,,-5.22e-07,-0.522
512.866,0.524138,-0.000467,,-4.6700000000000004e-07,-0.467
512.925,0.527065,-0.000467,,-4.6700000000000004e-07,-0.467
512.9830000000001,0.529991,-0.000439,,-4.39e-07,-0.439
513.0409999999999,0.532746,-0.000391,,-3.91e-07,-0.391
513.0980000000001,0.535501,-0.0004190000000000001,,-4.19e-07,-0.419
513.154,0.538255,-0.00047,,-4.700000000000001e-07,-0.47
513.219,0.5415270000000001,-0.00036,,-3.600000000000001e-07,-0.36000000000000004
513.278,0.544281,-0.000336,,-3.36e-07,-0.336
513.337,0.547552,-0.00035,,-3.5e-07,-0.35
513.405,0.551168,-0.000312,,-3.12e-07,-0.312
513.4630000000001,0.5539229999999999,-0.000236,,-2.3600000000000002e-07,-0.23600000000000002
513.5219999999999,0.5566770000000001,-0.000212,,-2.12e-07,-0.212
513.5880000000001,0.560121,-0.00027400000000000005,,-2.7400000000000004e-07,-0.27399999999999997
513.648,0.5632199999999999,-0.000223,,-2.23e-07,-0.223
513.706,0.565974,-0.000178,,-1.7799999999999995e-07,-0.17800000000000002
513.764,0.568901,-0.000119,,-1.1900000000000001e-07,-0.11900000000000001
513.823,0.571828,-7.8e-05,,-7.8e-08,-0.078
513.88,0.5744100000000001,8e-06,,7.999999999999999e-09,0.008
513.94,0.577509,2.2e-05,,2.2000000000000002e-08,0.022000000000000002
513.999,0.580264,1.9e-05,,1.8999999999999998e-08,0.019
514.057,0.582846,2.9e-05,,2.9e-08,0.029
514.114,0.5859449999999999,5e-06,,5e-09,0.005
514.1709999999999,0.5888720000000001,1e-06,,1e-09,0.001
514.229,0.591799,2.5e-05,,2.5e-08,0.025
514.288,0.594554,8.4e-05,,8.4e-08,0.08399999999999999
514.347,0.597653,0.00014199999999999998,,1.4199999999999995e-07,0.142
514.4119999999999,0.6007520000000001,0.000111,,1.11e-07,0.11100000000000003
514.47,0.603851,0.000129,,1.29e-07,0.129
514.529,0.6066050000000001,0.000139,,1.3900000000000001e-07,0.13899999999999998
514.587,0.609704,0.000177,,1.7699999999999996e-07,0.177
514.643,0.612115,0.000218,,2.18e-07,0.21800000000000005
514.702,0.615214,0.000204,,2.0399999999999997e-07,0.204
514.761,0.6179680000000001,0.000187,,1.87e-07,0.18700000000000006
514.823,0.621239,0.00016299999999999998,,1.6300000000000002e-07,0.16299999999999998
514.883,0.6243380000000001,0.00014199999999999998,,1.4199999999999995e-07,0.142
514.942,0.627093,0.000132,,1.3200000000000002e-07,0.132
515.0,0.629848,0.000101,,1.0099999999999999e-07,0.10099999999999999
515.058,0.632602,6.3e-05,,6.3e-08,0.063
515.114,0.6357010000000001,-2.6e-05,,-2.6e-08,-0.026
515.1709999999999,0.638628,-4.7e-05,,-4.7000000000000004e-08,-0.047
515.231,0.641727,-5e-05,,-5e-08,-0.05
515.29,0.644654,-6.1e-05,,-6.099999999999999e-08,-0.061
515.349,0.6475810000000001,-7.4e-05,,-7.4e-08,-0.07400000000000001
515.406,0.650508,-2.6e-05,,-2.6e-08,-0.026
515.464,0.653434,-6e-06,,-6e-09,-0.006
515.523,0.656361,-9e-06,,-9e-09,-0.009000000000000001
515.581,0.659116,-9e-06,,-9e-09,-0.009000000000000001
515.637,0.661698,-9.5e-05,,-9.5e-08,-0.095
515.697,0.664797,-0.000143,,-1.43e-07,-0.14300000000000002
515.756,0.667552,-8.1e-05,,-8.1e-08,-0.081
515.815,0.670479,-7.099999999999999e-05,,-7.099999999999999e-08,-0.071
515.873,0.6734060000000001,0.00014199999999999998,,1.4199999999999995e-07,0.142
515.931,0.676333,0.000291,,2.9100000000000005e-07,0.29100000000000004
515.99,0.6792590000000001,0.000728,,7.280000000000002e-07,0.728
516.047,0.6818420000000001,0.0012369999999999998,,1.2369999999999998e-06,1.237
516.106,0.684769,0.001592,,1.5920000000000004e-06,1.5919999999999999
516.164,0.687179,0.001868,,1.8680000000000002e-06,1.868
516.2230000000001,0.689934,0.002054,,2.054e-06,2.0540000000000003
516.28,0.692516,0.002305,,2.3050000000000004e-06,2.305
516.3380000000001,0.695615,0.001596,,1.5959999999999998e-06,1.5959999999999999
516.3969999999999,0.6983699999999999,0.001337,,1.337e-06,1.337
516.456,0.701641,0.001158,,1.158e-06,1.158
516.514,0.704396,0.001,,1e-06,1.0
516.571,0.707495,0.000807,,8.070000000000001e-07,0.8069999999999999
516.628,0.710421,0.000642,,6.420000000000001e-07,0.642
516.687,0.713348,0.0004969999999999999,,4.970000000000001e-07,0.497
516.745,0.7164470000000001,0.00048,,4.8e-07,0.48
516.804,0.719374,0.000425,,4.25e-07,0.425
516.861,0.722301,0.00039,,3.9e-07,0.39
516.918,0.725056,0.000308,,3.08e-07,0.308
516.976,0.727982,0.000184,,1.8399999999999998e-07,0.184
517.04,0.7312529999999999,0.000377,,3.7700000000000005e-07,0.377
517.0980000000001,0.73418,0.000211,,2.11e-07,0.211
517.163,0.737451,0.000504,,5.04e-07,0.504
517.227,0.740378,0.000549,,5.490000000000001e-07,0.5489999999999999
517.284,0.742961,0.000728,,7.280000000000002e-07,0.728
517.341,0.746232,2.2e-05,,2.2000000000000002e-08,0.022000000000000002
517.4,0.749159,0.000749,,7.489999999999998e-07,0.7490000000000001
517.4590000000001,0.751741,0.000797,,7.970000000000001e-07,0.7969999999999999
517.518,0.754668,0.000886,,8.86e-07,0.8859999999999999
517.576,0.757595,0.000897,,8.97e-07,0.897
517.634,0.76035,0.000907,,9.07e-07,0.907
517.697,0.7634489999999999,0.001014,,1.0140000000000002e-06,1.0140000000000002
517.757,0.766548,0.001186,,1.186e-06,1.186
517.815,0.76913,0.001275,,1.275e-06,1.275
517.874,0.772057,0.001379,,1.379e-06,1.379
517.931,0.7748109999999999,0.001451,,1.451e-06,1.4509999999999998
517.988,0.77791,0.001565,,1.565e-06,1.565
518.047,0.780493,0.001664,,1.664e-06,1.664
518.105,0.7832479999999999,0.001847,,1.847e-06,1.847
518.163,0.7860020000000001,0.002009,,2.009e-06,2.009
518.222,0.788929,0.00214,,2.14e-06,2.14
518.278,0.791512,0.002202,,2.202e-06,2.202
518.336,0.794438,0.00225,,2.25e-06,2.25
518.395,0.797365,0.002322,,2.322e-06,2.322
518.457,0.800292,0.002491,,2.491e-06,2.491
518.518,0.8032189999999999,0.002615,,2.6149999999999995e-06,2.615
518.576,0.805801,0.002666,,2.6660000000000004e-06,2.6660000000000004
518.635,0.8089,0.002722,,2.722e-06,2.722
518.694,0.811655,0.002763,,2.763e-06,2.763
518.752,0.8145819999999999,0.002828,,2.8280000000000007e-06,2.8280000000000003
518.81,0.817336,0.002914,,2.914e-06,2.914
518.87,0.820263,0.002997,,2.9970000000000007e-06,2.997
518.932,0.823362,0.003066,,3.0660000000000004e-06,3.0660000000000003
518.991,0.8262889999999999,0.003111,,3.1110000000000004e-06,3.111
519.05,0.829216,0.003166,,3.1660000000000003e-06,3.1660000000000004
519.113,0.8321430000000001,0.003252,,3.252e-06,3.252
519.169,0.8348969999999999,0.003317,,3.3169999999999998e-06,3.3169999999999997
519.227,0.837824,0.003403,,3.4030000000000007e-06,3.403
519.2869999999999,0.8405790000000001,0.003448,,3.4480000000000003e-06,3.4479999999999995
519.347,0.843678,0.003472,,3.472e-06,3.472
519.406,0.8466049999999999,0.003547999999999999,,3.5479999999999993e-06,3.548
519.464,0.849359,0.003644,,3.644e-06,3.644
519.523,0.8522860000000001,0.003703,,3.703e-06,3.703
519.5830000000001,0.8552129999999999,0.003751,,3.751e-06,3.7510000000000003
519.6419999999999,0.85814,0.003786,,3.7860000000000003e-06,3.786
519.7,0.860894,0.003820000000000001,,3.8200000000000015e-06,3.82
519.765,0.864166,0.003827,,3.827e-06,3.827
519.822,0.86692,0.003913000000000001,,3.9130000000000005e-06,3.9130000000000007
519.88,0.869675,0.003954,,3.954e-06,3.9539999999999997
519.939,0.8729459999999999,0.003975,,3.975e-06,3.975
519.997,0.8755290000000001,0.003961,,3.961e-06,3.961
520.061,0.8786280000000001,0.004051,,4.051e-06,4.051
520.118,0.8815540000000001,0.004071,,4.0710000000000005e-06,4.071000000000001
520.175,0.884481,0.004058,,4.058e-06,4.058
520.2330000000001,0.887236,0.004058,,4.058e-06,4.058
520.2909999999999,0.890335,0.004099,,4.099e-06,4.099
520.349,0.889991,0.002684,,2.6839999999999996e-06,2.6839999999999997
520.408,0.8880969999999999,0.001723,,1.723e-06,1.723
520.467,0.8862030000000001,0.001427,,1.4269999999999996e-06,1.4269999999999998
520.5269999999999,0.884309,0.001206,,1.206e-06,1.206
520.585,0.881899,0.001048,,1.0480000000000002e-06,1.048
520.644,0.879661,0.000886,,8.86e-07,0.8859999999999999
520.7040000000001,0.87725,0.000742,,7.420000000000002e-07,0.742
520.761,0.8750120000000001,0.000642,,6.420000000000001e-07,0.642
520.819,0.872602,0.0005110000000000001,,5.110000000000001e-07,0.511
520.877,0.8700190000000001,0.000377,,3.7700000000000005e-07,0.377
520.936,0.8674370000000001,0.000239,,2.39e-07,0.239
520.994,0.8650260000000001,8.7e-05,,8.7e-08,0.087
521.052,0.8624440000000001,-1.6e-05,,-1.5999999999999998e-08,-0.016
521.11,0.8596889999999999,-9.9e-05,,-9.9e-08,-0.099
521.168,0.857107,-0.000157,,-1.57e-07,-0.157
521.226,0.8546959999999999,-0.000198,,-1.98e-07,-0.198
521.2819999999999,0.85177,-0.000216,,-2.1600000000000005e-07,-0.21600000000000005
521.339,0.849015,-0.000295,,-2.9500000000000003e-07,-0.29500000000000004
521.398,0.846433,-0.000377,,-3.7700000000000005e-07,-0.377
521.457,0.843678,-0.0004570000000000001,,-4.57e-07,-0.4570000000000001
521.515,0.840923,-0.00057,,-5.699999999999999e-07,-0.57
521.578,0.8376520000000001,-0.000594,,-5.939999999999999e-07,-0.594
521.637,0.8348969999999999,-0.0006799999999999999,,-6.8e-07,-0.6799999999999999
521.696,0.8321430000000001,-0.0007700000000000001,,-7.7e-07,-0.77
521.755,0.8293879999999999,-0.00086,,-8.6e-07,-0.86
521.811,0.826633,-0.00098,,-9.8e-07,-0.98
521.87,0.8238790000000001,-0.001056,,-1.056e-06,-1.056
521.929,0.821124,-0.001128,,-1.1279999999999998e-06,-1.128
521.987,0.818369,-0.001173,,-1.173e-06,-1.173
522.048,0.815443,-0.00128,,-1.28e-06,-1.28
522.1080000000001,0.812516,-0.001369,,-1.3690000000000001e-06,-1.369
522.168,0.809761,-0.001476,,-1.476e-06,-1.476
522.2280000000001,0.806834,-0.001576,,-1.576e-06,-1.5759999999999998
522.2909999999999,0.803908,-0.0017239999999999998,,-1.7240000000000001e-06,-1.7239999999999998
522.3480000000001,0.801153,-0.001806,,-1.806e-06,-1.806
522.408,0.798226,-0.00193,,-1.93e-06,-1.93
522.4680000000001,0.795471,-0.002041,,-2.041e-06,-2.041
522.526,0.7925449999999999,-0.002154,,-2.154e-06,-2.154
522.59,0.7899619999999999,-0.002361,,-2.361e-06,-2.361
522.648,0.787035,-0.002474,,-2.4739999999999995e-06,-2.474
522.706,0.784281,-0.002574,,-2.574e-06,-2.574
522.763,0.781526,-0.002671,,-2.6710000000000003e-06,-2.6710000000000003
522.821,0.778771,-0.0028120000000000003,,-2.8120000000000004e-06,-2.8120000000000003
522.878,0.776017,-0.002987,,-2.987e-06,-2.987
522.938,0.7730899999999999,-0.003139,,-3.139e-06,-3.139
522.997,0.770335,-0.003308,,-3.308e-06,-3.3080000000000003
523.059,0.7672359999999999,-0.003418,,-3.418e-06,-3.418
