time,potential,current1_mA,coll_current,current1,current1_muA
845.9989999999999,0.10457,-0.004754,,-4.754e-06,-4.754
846.06,0.101643,-0.004888,,-4.8880000000000005e-06,-4.888
846.1210000000001,0.098372,-0.005033,,-5.033e-06,-5.033
846.184,0.095445,-0.005226,,-5.2260000000000004e-06,-5.226
846.2439999999999,0.092518,-0.005374,,-5.3740000000000006e-06,-5.3740000000000006
846.305,0.08959099999999999,-0.005542,,-5.5420000000000005e-06,-5.542000000000001
846.363,0.087009,-0.005718,,-5.717999999999999e-06,-5.718
846.424,0.08391,-0.005938000000000001,,-5.938000000000001e-06,-5.9380000000000015
846.4839999999999,0.080983,-0.006166,,-6.166e-06,-6.166
846.545,0.07822799999999999,-0.006455,,-6.455e-06,-6.455
846.607,0.075129,-0.006765,,-6.765000000000001e-06,-6.7650000000000015
846.671,0.07203,-0.007106,,-7.106e-06,-7.106000000000001
846.732,0.069103,-0.007504999999999999,,-7.5049999999999984e-06,-7.505
846.7919999999999,0.066177,-0.007987000000000001,,-7.987000000000003e-06,-7.987000000000001
846.852,0.06359400000000001,-0.008537999999999999,,-8.537999999999999e-06,-8.537999999999998
846.915,0.06084,-0.009182,,-9.182000000000001e-06,-9.182
846.975,0.057913,-0.009933,,-9.933e-06,-9.933
847.0360000000001,0.055502,-0.010835,,-1.0835e-05,-10.835
847.1,0.054814,-0.007818,,-7.818e-06,-7.818
847.158,0.055675,-0.003855,,-3.855e-06,-3.855
847.2189999999999,0.056879999999999986,-0.002178,,-2.178e-06,-2.1780000000000004
847.279,0.058774,-0.001052,,-1.052e-06,-1.052
847.3430000000001,0.060667,-0.000198,,-1.98e-07,-0.198
847.4019999999999,0.06273300000000001,0.000466,,4.66e-07,0.466
847.462,0.064799,0.000976,,9.759999999999998e-07,0.976
847.5219999999999,0.06721,0.001344,,1.344e-06,1.344
847.5830000000001,0.069964,0.001599,,1.599e-06,1.599
847.6410000000001,0.072375,0.001788,,1.788e-06,1.7879999999999998
847.7,0.075129,0.001909,,1.909e-06,1.909
847.76,0.078056,0.001954,,1.9540000000000003e-06,1.954
847.821,0.080983,0.001957,,1.957e-06,1.9569999999999999
847.888,0.08391,0.001905,,1.905e-06,1.905
847.949,0.086664,0.001881,,1.881e-06,1.881
848.0089999999999,0.08959099999999999,0.001826,,1.826e-06,1.8259999999999998
848.071,0.092862,0.001785,,1.785e-06,1.785
848.1310000000001,0.095789,0.001716,,1.7160000000000004e-06,1.716
848.191,0.098888,0.001637,,1.637e-06,1.6369999999999998
848.252,0.102159,0.001575,,1.575e-06,1.575
848.312,0.104914,0.001489,,1.489e-06,1.489
848.373,0.108529,0.00143,,1.43e-06,1.4300000000000002
848.434,0.111284,0.001361,,1.361e-06,1.361
848.4939999999999,0.114555,0.001289,,1.289e-06,1.2890000000000001
848.554,0.117482,0.001217,,1.217e-06,1.217
848.612,0.120409,0.001131,,1.1309999999999998e-06,1.131
848.673,0.12368,0.001079,,1.079e-06,1.079
848.7339999999999,0.126779,0.001024,,1.024e-06,1.024
848.794,0.13005,0.000965,,9.65e-07,0.965
848.8539999999999,0.132977,0.000907,,9.07e-07,0.907
848.914,0.136076,0.0008410000000000001,,8.410000000000002e-07,0.8410000000000001
848.9739999999999,0.139175,0.000779,,7.790000000000001e-07,0.7789999999999999
849.038,0.142618,0.000669,,6.690000000000001e-07,0.669
849.096,0.145373,0.0006349999999999999,,6.35e-07,0.6349999999999999
849.1569999999999,0.148644,0.000556,,5.560000000000001e-07,0.5559999999999999
849.216,0.15174300000000002,0.0005070000000000001,,5.070000000000001e-07,0.5070000000000001
849.2760000000001,0.15467,0.000445,,4.45e-07,0.445
849.337,0.157941,0.000384,,3.84e-07,0.384
849.395,0.160696,0.000346,,3.46e-07,0.34600000000000003
849.455,0.163967,0.000301,,3.01e-07,0.301
849.515,0.166894,0.000256,,2.56e-07,0.256
849.574,0.16982,0.000208,,2.08e-07,0.208
849.6389999999999,0.173264,0.000108,,1.08e-07,0.108
849.704,0.17636300000000002,-9e-06,,-9e-09,-0.009000000000000001
849.765,0.17929,-4.7e-05,,-4.7000000000000004e-08,-0.047
849.825,0.182389,-8.1e-05,,-8.1e-08,-0.081
849.885,0.185315,-0.000126,,-1.26e-07,-0.126
849.945,0.188414,-0.000167,,-1.67e-07,-0.16699999999999998
850.005,0.191513,-0.000209,,-2.09e-07,-0.209
850.066,0.194612,-0.000229,,-2.2899999999999997e-07,-0.22899999999999998
850.1239999999999,0.197539,-0.000284,,-2.8399999999999995e-07,-0.284
850.185,0.200466,-0.000298,,-2.98e-07,-0.298
850.245,0.203565,-0.000326,,-3.2600000000000003e-07,-0.326
850.313,0.20718000000000006,-0.000229,,-2.2899999999999997e-07,-0.22899999999999998
850.373,0.209935,-0.00025,,-2.5e-07,-0.25
850.433,0.213034,-0.000271,,-2.7100000000000003e-07,-0.271
850.492,0.215961,-0.000284,,-2.8399999999999995e-07,-0.284
850.553,0.21906,-0.000302,,-3.0200000000000003e-07,-0.30200000000000005
850.6110000000001,0.221987,-0.000315,,-3.15e-07,-0.315
850.669,0.224914,-0.000357,,-3.5700000000000003e-07,-0.35700000000000004
850.7280000000001,0.22784,-0.000384,,-3.84e-07,-0.384
850.788,0.230767,-0.000384,,-3.84e-07,-0.384
850.847,0.233694,-0.000412,,-4.1200000000000004e-07,-0.41200000000000003
850.91,0.236793,-0.00036,,-3.600000000000001e-07,-0.36000000000000004
850.97,0.239892,-0.000377,,-3.7700000000000005e-07,-0.377
851.029,0.242819,-0.000412,,-4.1200000000000004e-07,-0.41200000000000003
851.092,0.246262,-0.00128,,-1.28e-06,-1.28
851.15,0.249361,-0.001335,,-1.335e-06,-1.335
851.21,0.252288,-0.001297,,-1.2969999999999998e-06,-1.297
851.2710000000001,0.255387,-0.001273,,-1.273e-06,-1.273
851.33,0.258486,-0.001276,,-1.276e-06,-1.276
851.3969999999999,0.261585,-0.0013449999999999998,,-1.3449999999999998e-06,-1.3449999999999998
851.457,0.26468400000000003,-0.001355,,-1.3550000000000002e-06,-1.355
851.5169999999999,0.267438,-0.001348,,-1.348e-06,-1.348
851.582,0.270882,-0.001404,,-1.4039999999999998e-06,-1.4040000000000001
851.64,0.273636,-0.00139,,-1.39e-06,-1.39
851.703,0.27708,-0.001383,,-1.383e-06,-1.383
851.763,0.280007,-0.001376,,-1.376e-06,-1.376
851.825,0.283106,-0.001342,,-1.3419999999999998e-06,-1.3419999999999999
851.883,0.28586,-0.001362,,-1.3619999999999998e-06,-1.362
851.941,0.288787,-0.001366,,-1.366e-06,-1.3659999999999999
852.002,0.291542,-0.001355,,-1.3550000000000002e-06,-1.355
852.061,0.294641,-0.001342,,-1.3419999999999998e-06,-1.3419999999999999
852.122,0.29774,-0.001324,,-1.3240000000000002e-06,-1.324
852.183,0.300839,-0.001307,,-1.307e-06,-1.307
852.2410000000001,0.303421,-0.0013,,-1.2999999999999998e-06,-1.3
852.299,0.306348,-0.001276,,-1.276e-06,-1.276
852.3589999999999,0.309447,-0.001259,,-1.2590000000000001e-06,-1.2590000000000001
852.42,0.312374,-0.001249,,-1.249e-06,-1.249
852.48,0.315473,-0.001228,,-1.228e-06,-1.228
852.539,0.318227,-0.0012,,-1.2e-06,-1.2
852.5989999999999,0.320982,-0.001173,,-1.173e-06,-1.173
852.658,0.323909,-0.001128,,-1.1279999999999998e-06,-1.128
852.716,0.327008,-0.001063,,-1.0630000000000002e-06,-1.0630000000000002
852.7739999999999,0.329935,-0.001011,,-1.011e-06,-1.011
852.835,0.332689,-0.001001,,-1.001e-06,-1.001
852.895,0.335616,-0.00097,,-9.7e-07,-0.97
852.955,0.338715,-0.000942,,-9.42e-07,-0.942
853.0160000000001,0.341642,-0.000935,,-9.35e-07,-0.935
853.075,0.344741,-0.000891,,-8.909999999999999e-07,-0.8909999999999999
853.1360000000001,0.347668,-0.00088,,-8.8e-07,-0.88
853.198,0.350595,-0.000877,,-8.769999999999998e-07,-0.877
853.2560000000001,0.353349,-0.0008150000000000001,,-8.15e-07,-0.8150000000000001
853.317,0.356448,-0.000808,,-8.079999999999999e-07,-0.8079999999999999
853.38,0.359547,-0.0008349999999999999,,-8.349999999999998e-07,-0.835
853.44,0.362302,-0.000808,,-8.079999999999999e-07,-0.8079999999999999
853.5010000000001,0.365573,-0.000787,,-7.87e-07,-0.787
853.561,0.3685,-0.000753,,-7.529999999999999e-07,-0.753
853.6210000000001,0.371082,-0.000725,,-7.249999999999998e-07,-0.725
853.679,0.374181,-0.0006940000000000001,,-6.94e-07,-0.6940000000000001
853.737,0.377108,-0.000656,,-6.559999999999999e-07,-0.6559999999999999
853.798,0.380207,-0.0006490000000000001,,-6.490000000000001e-07,-0.649
853.8580000000001,0.382962,-0.000615,,-6.149999999999999e-07,-0.615
853.919,0.386061,-0.0006219999999999999,,-6.219999999999999e-07,-0.6219999999999999
853.9780000000001,0.388988,-0.000557,,-5.57e-07,-0.5569999999999999
854.038,0.392087,-0.000505,,-5.05e-07,-0.505
854.0989999999999,0.394841,-0.000467,,-4.6700000000000004e-07,-0.467
854.16,0.39794,-0.000429,,-4.29e-07,-0.429
854.2180000000001,0.400867,-0.000346,,-3.46e-07,-0.34600000000000003
854.2769999999999,0.403622,-0.000271,,-2.7100000000000003e-07,-0.271
854.337,0.406721,-0.000205,,-2.05e-07,-0.205
854.3960000000001,0.409647,-0.000116,,-1.16e-07,-0.116
854.4580000000001,0.4124020000000001,-6.4e-05,,-6.399999999999999e-08,-0.064
854.5169999999999,0.415501,3.2e-05,,3.1999999999999995e-08,0.032
854.577,0.418428,0.000122,,1.2199999999999998e-07,0.122
854.637,0.421355,0.000229,,2.2899999999999997e-07,0.22899999999999998
854.697,0.424109,0.000346,,3.46e-07,0.34600000000000003
854.757,0.427036,0.000459,,4.59e-07,0.459
854.817,0.429963,0.000576,,5.76e-07,0.5760000000000001
854.88,0.43289,0.0007,,7e-07,0.7
854.947,0.435989,0.000883,,8.83e-07,0.883
855.007,0.438744,0.001041,,1.0409999999999999e-06,1.041
855.068,0.44167,0.001227,,1.227e-06,1.227
855.127,0.444253,0.001361,,1.361e-06,1.361
855.185,0.44718,0.001499,,1.4990000000000004e-06,1.499
855.2460000000001,0.449934,0.001678,,1.678e-06,1.6780000000000002
855.306,0.452861,0.001837,,1.837e-06,1.837
855.367,0.45596,0.002016,,2.016e-06,2.016
855.428,0.458887,0.002177,,2.177e-06,2.177
855.49,0.4618140000000001,0.002329,,2.329e-06,2.329
855.549,0.464568,0.002436,,2.436e-06,2.436
855.6080000000001,0.467495,0.0025050000000000003,,2.505e-06,2.5050000000000003
855.668,0.47025,0.002577,,2.577e-06,2.577
855.7280000000001,0.473349,0.002639,,2.6389999999999996e-06,2.639
855.7860000000001,0.476104,0.002625,,2.6250000000000003e-06,2.625
855.8439999999999,0.47903,0.002618,,2.618e-06,2.6180000000000003
855.904,0.482129,0.002629,,2.629e-06,2.6289999999999996
855.9639999999999,0.484884,0.002615,,2.6149999999999995e-06,2.615
856.0239999999999,0.487811,0.002594,,2.5939999999999996e-06,2.594
856.0830000000001,0.49091,0.002549,,2.549e-06,2.549
856.143,0.493837,0.002511,,2.511e-06,2.511
856.204,0.496936,0.002474,,2.4739999999999995e-06,2.474
856.265,0.49969,0.002419,,2.419e-06,2.419
856.323,0.502789,0.00237,,2.37e-06,2.37
856.385,0.5057159999999999,0.002329,,2.329e-06,2.329
856.445,0.508987,0.002305,,2.3050000000000004e-06,2.305
856.512,0.5126029999999999,0.002357,,2.357e-06,2.3569999999999998
856.576,0.515702,0.002284,,2.284e-06,2.2840000000000003
856.6339999999999,0.518629,0.002277,,2.277e-06,2.2769999999999997
856.693,0.521555,0.00225,,2.25e-06,2.25
856.753,0.524482,0.002229,,2.229e-06,2.229
856.818,0.527925,0.00215,,2.15e-06,2.15
856.883,0.5310239999999999,0.002091,,2.091e-06,2.0909999999999997
856.943,0.5339510000000001,0.002078,,2.0780000000000003e-06,2.0780000000000003
857.003,0.53705,0.002081,,2.081e-06,2.081
857.061,0.539977,0.002071,,2.071e-06,2.071
857.1210000000001,0.5429039999999999,0.002081,,2.081e-06,2.081
857.181,0.546175,0.002074,,2.074e-06,2.074
857.2410000000001,0.5491020000000001,0.002085,,2.085e-06,2.085
857.299,0.5518569999999999,0.002109,,2.109e-06,2.109
857.3589999999999,0.554956,0.002115,,2.115e-06,2.115
857.42,0.55771,0.002115,,2.115e-06,2.115
857.482,0.560809,0.002133,,2.133e-06,2.133
857.553,0.564425,0.002253,,2.2530000000000003e-06,2.253
857.613,0.567524,0.002264,,2.2640000000000003e-06,2.2640000000000002
857.673,0.57045,0.002274,,2.274e-06,2.274
857.7339999999999,0.573549,0.002284,,2.284e-06,2.2840000000000003
857.794,0.5766479999999999,0.002288,,2.288e-06,2.2880000000000003
857.852,0.579403,0.002315,,2.315e-06,2.315
857.9119999999999,0.582158,0.002326,,2.326e-06,2.326
857.972,0.5852569999999999,0.002339,,2.339e-06,2.339
858.033,0.588356,0.002343,,2.3430000000000003e-06,2.343
858.1,0.591627,0.002257,,2.257e-06,2.257
858.16,0.594554,0.0022600000000000003,,2.2600000000000004e-06,2.26
858.221,0.597481,0.002277,,2.277e-06,2.2769999999999997
858.2869999999999,0.60058,0.002346,,2.346e-06,2.346
858.345,0.603506,0.0023190000000000003,,2.319e-06,2.3190000000000004
858.4069999999999,0.6066050000000001,0.002357,,2.357e-06,2.3569999999999998
858.4680000000001,0.609704,0.002363,,2.363e-06,2.363
858.528,0.612631,0.002339,,2.339e-06,2.339
858.592,0.6159020000000001,0.002343,,2.3430000000000003e-06,2.343
858.6519999999999,0.619001,0.0023190000000000003,,2.319e-06,2.3190000000000004
858.7130000000001,0.6219279999999999,0.002295,,2.295e-06,2.295
858.7719999999999,0.625027,0.002274,,2.274e-06,2.274
858.83,0.627782,0.00225,,2.25e-06,2.25
858.888,0.630536,0.002208,,2.2080000000000003e-06,2.208
858.947,0.633463,0.002171,,2.171e-06,2.1710000000000003
859.008,0.636562,0.002167,,2.1669999999999998e-06,2.1670000000000003
859.074,0.6400060000000001,0.00214,,2.14e-06,2.14
859.1339999999999,0.6432770000000001,0.002105,,2.105e-06,2.105
859.194,0.646031,0.002091,,2.091e-06,2.0909999999999997
859.252,0.648958,0.002085,,2.085e-06,2.085
859.31,0.651713,0.002071,,2.071e-06,2.071
859.3689999999999,0.65464,0.00205,,2.0500000000000003e-06,2.0500000000000003
859.429,0.6577390000000001,0.002029,,2.029e-06,2.029
859.49,0.660838,0.002019,,2.019e-06,2.019
859.554,0.6641090000000001,0.001978,,1.978e-06,1.978
859.615,0.667208,0.001961,,1.961e-06,1.9609999999999999
859.674,0.670135,0.0019920000000000003,,1.9919999999999997e-06,1.992
859.735,0.6734060000000001,0.002057,,2.0570000000000004e-06,2.0570000000000004
859.793,0.675988,0.002281,,2.281e-06,2.281
859.8510000000001,0.678571,0.002594,,2.5939999999999996e-06,2.594
859.909,0.681153,0.002925,,2.925e-06,2.9250000000000003
859.967,0.683736,0.0032310000000000004,,3.231000000000001e-06,3.2310000000000003
860.0260000000001,0.6864899999999999,0.0035,,3.5000000000000004e-06,3.5
860.087,0.689589,0.003672,,3.672e-06,3.672
860.148,0.692516,0.003662,,3.662e-06,3.662
860.209,0.695615,0.003472,,3.472e-06,3.472
860.2669999999999,0.698542,0.003179,,3.179e-06,3.179
860.329,0.701641,0.002904,,2.9039999999999996e-06,2.904
860.388,0.7047399999999999,0.0026420000000000003,,2.6420000000000003e-06,2.6420000000000003
860.449,0.707667,0.002408,,2.408e-06,2.408
860.508,0.710938,0.002208,,2.2080000000000003e-06,2.208
860.568,0.713693,0.00204,,2.0399999999999995e-06,2.04
860.628,0.716964,0.001899,,1.8990000000000002e-06,1.899
860.686,0.719891,0.001754,,1.754e-06,1.754
860.7460000000001,0.723162,0.001664,,1.664e-06,1.664
860.807,0.726089,0.001602,,1.602e-06,1.602
860.867,0.729187,0.001537,,1.537e-06,1.537
860.925,0.732286,0.001454,,1.454e-06,1.454
860.985,0.735213,0.001417,,1.4170000000000004e-06,1.4169999999999998
861.045,0.73814,0.001386,,1.386e-06,1.386
861.1060000000001,0.7414109999999999,0.001382,,1.3819999999999999e-06,1.382
861.169,0.744682,0.001403,,1.4030000000000002e-06,1.403
861.2280000000001,0.747609,0.001392,,1.392e-06,1.392
861.288,0.750364,0.001399,,1.399e-06,1.399
861.352,0.753807,0.001389,,1.389e-06,1.389
861.4119999999999,0.7569060000000001,0.001396,,1.3959999999999998e-06,1.396
861.4730000000001,0.759833,0.001399,,1.399e-06,1.399
861.5319999999999,0.76276,0.001434,,1.4340000000000002e-06,1.4340000000000002
861.591,0.765515,0.001478,,1.478e-06,1.4780000000000002
861.6510000000001,0.768614,0.001503,,1.503e-06,1.5030000000000001
861.71,0.77154,0.001547,,1.547e-06,1.547
861.77,0.7746390000000001,0.001582,,1.5819999999999998e-06,1.5819999999999999
861.832,0.777566,0.001592,,1.5920000000000004e-06,1.5919999999999999
861.893,0.780493,0.00162,,1.62e-06,1.62
861.955,0.783592,0.00162,,1.62e-06,1.62
862.0139999999999,0.786519,0.001668,,1.6680000000000002e-06,1.6680000000000001
862.074,0.789446,0.001713,,1.7130000000000002e-06,1.713
862.135,0.7925449999999999,0.001726,,1.7259999999999999e-06,1.7260000000000002
862.196,0.795299,0.001744,,1.7440000000000004e-06,1.7440000000000002
862.2539999999999,0.7983979999999999,0.001816,,1.816e-06,1.816
862.312,0.801153,0.001888,,1.8880000000000002e-06,1.8880000000000001
862.372,0.80408,0.001912,,1.912e-06,1.912
862.432,0.8070069999999999,0.001936,,1.9359999999999998e-06,1.936
862.493,0.810106,0.001947,,1.947e-06,1.947
862.554,0.813204,0.001947,,1.947e-06,1.947
862.613,0.815787,0.001981,,1.981e-06,1.981
862.672,0.818886,0.002023,,2.023e-06,2.023
862.7410000000001,0.8221569999999999,0.001971,,1.9710000000000003e-06,1.9709999999999999
862.799,0.825084,0.001967,,1.967e-06,1.9669999999999999
862.8589999999999,0.828183,0.001985,,1.985e-06,1.9850000000000003
862.919,0.83111,0.001998,,1.998e-06,1.998
862.9830000000001,0.834209,0.002071,,2.071e-06,2.071
863.05,0.8373079999999999,0.002146,,2.146e-06,2.146
863.11,0.840407,0.002157,,2.1570000000000003e-06,2.157
863.171,0.843506,0.002157,,2.1570000000000003e-06,2.157
863.23,0.84626,0.002184,,2.184e-06,2.184
863.288,0.849359,0.002208,,2.2080000000000003e-06,2.208
863.3489999999999,0.8522860000000001,0.002215,,2.215e-06,2.215
863.4110000000001,0.8553850000000001,0.002205,,2.205e-06,2.205
863.472,0.858656,0.002198,,2.198e-06,2.198
863.541,0.861927,0.002174,,2.174e-06,2.174
863.6010000000001,0.8648540000000001,0.002184,,2.184e-06,2.184
863.6610000000001,0.8677809999999999,0.002195,,2.195e-06,2.195
863.721,0.8708799999999999,0.002212,,2.2119999999999997e-06,2.2119999999999997
863.779,0.873635,0.002205,,2.205e-06,2.205
863.8380000000001,0.876389,0.002222,,2.222e-06,2.222
863.898,0.8794879999999999,0.002239,,2.239e-06,2.2390000000000003
863.961,0.8825870000000001,0.002277,,2.277e-06,2.2769999999999997
864.025,0.8856860000000001,0.002374,,2.374e-06,2.374
864.0830000000001,0.888441,0.002367,,2.3670000000000004e-06,2.367
864.143,0.8917120000000001,0.002405,,2.405e-06,2.405
864.205,0.89154,0.001113,,1.113e-06,1.113
864.2660000000001,0.8896459999999999,0.000201,,2.01e-07,0.201
864.326,0.8877520000000001,-1.2e-05,,-1.2e-08,-0.012
864.3860000000001,0.8855139999999999,-0.000164,,-1.6399999999999999e-07,-0.16399999999999998
864.445,0.8831040000000001,-0.000295,,-2.9500000000000003e-07,-0.29500000000000004
864.507,0.880866,-0.000371,,-3.71e-07,-0.371
864.567,0.878283,-0.0004570000000000001,,-4.57e-07,-0.4570000000000001
864.627,0.8758729999999999,-0.000529,,-5.289999999999999e-07,-0.5289999999999999
864.687,0.8731180000000001,-0.000598,,-5.979999999999999e-07,-0.598
864.745,0.870708,-0.0006799999999999999,,-6.8e-07,-0.6799999999999999
864.804,0.868125,-0.000746,,-7.459999999999999e-07,-0.746
864.865,0.8653709999999999,-0.000787,,-7.87e-07,-0.787
864.925,0.8624440000000001,-0.000822,,-8.22e-07,-0.8220000000000001
864.988,0.8596889999999999,-0.0008289999999999999,,-8.289999999999998e-07,-0.8289999999999998
865.048,0.856935,-0.000866,,-8.659999999999999e-07,-0.866
865.1089999999999,0.8541799999999999,-0.000901,,-9.009999999999999e-07,-0.9009999999999999
865.169,0.851253,-0.000928,,-9.28e-07,-0.928
865.227,0.848671,-0.00097,,-9.7e-07,-0.97
865.2860000000001,0.8455719999999999,-0.001011,,-1.011e-06,-1.011
865.3480000000001,0.8426450000000001,-0.001021,,-1.0209999999999998e-06,-1.021
865.4069999999999,0.8397180000000001,-0.001056,,-1.056e-06,-1.056
865.4680000000001,0.8369629999999999,-0.00108,,-1.08e-06,-1.08
865.528,0.834037,-0.001107,,-1.1070000000000002e-06,-1.1070000000000002
865.5880000000001,0.831282,-0.001142,,-1.142e-06,-1.1420000000000001
865.6460000000001,0.828183,-0.00119,,-1.19e-06,-1.1900000000000002
865.704,0.825428,-0.001256,,-1.256e-06,-1.256
865.762,0.822501,-0.001338,,-1.3380000000000001e-06,-1.338
865.822,0.8197469999999999,-0.001369,,-1.3690000000000001e-06,-1.369
865.882,0.81682,-0.001417,,-1.4170000000000004e-06,-1.4169999999999998
865.942,0.813721,-0.001469,,-1.469e-06,-1.469
866.002,0.810966,-0.001517,,-1.5169999999999996e-06,-1.517
866.063,0.80804,-0.001552,,-1.552e-06,-1.5519999999999998
866.1210000000001,0.805457,-0.001641,,-1.641e-06,-1.641
866.184,0.802186,-0.001655,,-1.655e-06,-1.655
866.2439999999999,0.799431,-0.00172,,-1.72e-06,-1.72
866.305,0.7963319999999999,-0.001775,,-1.7750000000000004e-06,-1.775
866.3710000000001,0.793233,-0.001858,,-1.858e-06,-1.858
866.432,0.7903060000000001,-0.001948,,-1.948e-06,-1.948
866.492,0.78738,-0.002047,,-2.047e-06,-2.047
866.552,0.784453,-0.002144,,-2.144e-06,-2.144
866.61,0.781698,-0.002206,,-2.206e-06,-2.206
866.671,0.778771,-0.002313,,-2.313e-06,-2.313
866.732,0.776017,-0.002433,,-2.4330000000000003e-06,-2.4330000000000003
